PPG,Date,Year,Month,Week,Seasonal_index,const,promo_catalogue,promo_ins,display_platinum,display_gold,display_silver,display_bronze,Retailer 0_Promo.Group 22_Wtd.Selling.Dist,Retailer 0_Promo.Group 20_display_silver,Retailer 1_Promo.Group 6_promo_catalogue,Retailer 1_Promo.Group 3_display_bronze,Vol.Sales,Vol.Sales_pred
ppg19_1,05-08-2018,2018,8,31,8.797723238,1.505413905,2.253579185,0,0,0.276335663,0,0,0,0,0,0,9.95852,12.83305199
ppg19_1,12-08-2018,2018,8,32,6.615576871,1.505413905,0,0,0,0,0,0,0,0,0,0,9.4926,8.120990776
ppg19_1,19-08-2018,2018,8,33,8.14965264,1.505413905,0,0,0,0,0,1.010961854,-0.024488529,0,0,0,9.53888,10.64153987
ppg19_1,26-08-2018,2018,8,34,7.347029551,1.505413905,0,0,0,0,0,1.010961854,-0.25242022,0,-1.48175331,0,5.47924,8.12923178
ppg19_1,02-09-2018,2018,9,35,8.057284456,1.505413905,0,0,0,0,0,0,-0.461514582,0,0,0,7.85772,9.10118378
ppg19_1,09-09-2018,2018,9,36,5.920588381,1.505413905,0,0,0,0.276335663,0,0,-0.715818535,0,-1.48175331,0,5.35444,5.504766104
ppg19_1,16-09-2018,2018,9,37,7.018916638,1.505413905,0,0,0,0,0,0,-0.885354504,0,0,0,6.51768,7.63897604
ppg19_1,23-09-2018,2018,9,38,6.655956229,1.505413905,0,0,0,0,0,0,-0.903249967,0,-1.48175331,0,7.01844,5.776366856
ppg19_1,30-09-2018,2018,9,39,8.667417172,1.505413905,2.253579185,0,0,0,0,0,-0.914552365,0,0,0,10.51024,11.5118579
ppg19_1,07-10-2018,2018,10,40,10.02872787,1.505413905,0,0,0,0,0,0,-0.929622229,0,-1.48175331,0,4.05756,9.12276624
ppg19_1,14-10-2018,2018,10,41,3.791234647,1.505413905,0,0,0,0,0,0,-0.932447829,0,0,-0.526693122,3.98476,3.837507602
ppg19_1,21-10-2018,2018,10,42,4.536939688,1.505413905,0,0,0,0,0,0,-0.932447829,0,-1.48175331,0,3.7726,3.628152455
ppg19_1,28-10-2018,2018,10,43,4.486609335,1.505413905,0,0,0,0,0,0,-0.932447829,0,-1.48175331,0,5.1922,3.577822101
ppg19_1,04-11-2018,2018,11,44,5.274507992,1.505413905,0,0,0,0,0,1.010961854,-0.931505962,0,0,0,6.63468,6.85937779
ppg19_1,11-11-2018,2018,11,45,4.423725343,1.505413905,0,0,0,0,0,1.010961854,-0.931505962,0,-1.48175331,0,4.485,4.52684183
ppg19_1,18-11-2018,2018,11,46,5.908482718,1.505413905,0,0,0,0,0,0,-0.931505962,0,0,0,6.61492,6.482390661
ppg19_1,25-11-2018,2018,11,47,5.842370951,1.505413905,0,0,0,0,0,0,-0.930564096,0,0,0,6.40692,6.41722076
ppg19_1,02-12-2018,2018,12,48,10.95916421,1.505413905,0,0,0,0,0,0,-0.92679663,0,-1.48175331,0,9.0896,10.05602818
ppg19_1,09-12-2018,2018,12,49,6.645196444,1.505413905,0,0,0,0,0,0,-0.919261698,0,-1.48175331,0,6.49064,5.749595341
ppg19_1,16-12-2018,2018,12,50,10.36627982,1.505413905,0,0,0,0,0,0,-0.912668632,0,0,-0.526693122,10.699,10.43233197
ppg19_1,23-12-2018,2018,12,51,13.58572666,1.505413905,0,0,0,0,0,0,-0.902308101,0,0,0,14.48252,14.18883247
ppg19_1,30-12-2018,2018,12,52,4.500219638,1.505413905,0,0,0,0,0,0,-0.900424368,0,0,0,5.40696,5.105209176
ppg19_1,06-01-2019,2019,1,1,4.375338627,1.505413905,0,0,0,0.276335663,0,0,-0.898540635,0,0,0,5.81672,5.25854756
ppg19_1,13-01-2019,2019,1,2,4.784455624,1.505413905,0,0,0,0.276335663,0,0,-0.895715035,0,0,0,5.65188,5.670490157
ppg19_1,20-01-2019,2019,1,3,4.248379799,1.505413905,0,0,0,0.276335663,0,0,-0.901366234,0,-1.48175331,0,5.06792,3.647009822
ppg19_1,27-01-2019,2019,1,4,4.087333775,1.505413905,0,0,0,0,1.575096435,0,-0.900424368,0,0,0,4.97952,6.267419748
ppg19_1,03-02-2019,2019,2,5,3.466144133,1.505413905,0,0,0,0,0,0,-0.899482501,0,0,0,4.41948,4.072075536
ppg19_1,10-02-2019,2019,2,6,3.385864971,1.505413905,0,0,0,0,0,0,-0.894773169,0,-1.48175331,0,3.71956,2.514752397
ppg19_1,17-02-2019,2019,2,7,4.246818125,1.505413905,0,0,0,0,0,0,-0.88912197,0,0,0,4.96028,4.86311006
ppg19_1,24-02-2019,2019,2,8,3.468059737,1.505413905,0,0,0,0,0,0,-0.891005703,0,-1.48175331,-0.526693122,3.5022,2.074021507
ppg19_1,03-03-2019,2019,3,9,4.305551367,1.505413905,0,0,0,0,0,0,-0.892889436,0,0,0,4.667,4.918075837
ppg19_1,10-03-2019,2019,3,10,4.299318086,1.505413905,0,0,0,0,0,0,-0.893831302,1.957440822,0,-0.526693122,3.95148,6.34164839
ppg19_1,17-03-2019,2019,3,11,5.430996146,1.505413905,0,0,0,0,0,0,-0.894773169,0,-1.48175331,0,5.47248,4.559883572
ppg19_1,24-03-2019,2019,3,12,4.670636462,1.505413905,0,0,0,0,0,0,-0.892889436,0,0,0,3.7206,5.283160931
ppg19_1,31-03-2019,2019,3,13,7.165167608,1.505413905,0,0,0,0,0,1.010961854,-0.888180103,0,0,0,7.02312,8.793363264
ppg19_1,07-04-2019,2019,4,14,8.282767959,1.505413905,0,0,0,0,0,1.010961854,-0.890063836,0,0,0,9.29344,9.909079882
ppg19_1,14-04-2019,2019,4,15,9.117967136,1.505413905,0,0,0,0,0,1.010961854,-0.893831302,0,-1.48175331,0,8.37822,9.258758282
ppg19_1,21-04-2019,2019,4,16,13.7827243,1.505413905,0,0,0,0,0,0,-0.892889436,1.957440822,0,0,18.54476,16.35268959
ppg19_1,28-04-2019,2019,4,17,10.49402882,1.505413905,0,0,0,0,0,0,-0.890063836,0,0,0,10.49204,11.10937889
ppg19_1,05-05-2019,2019,5,18,10.30583191,1.505413905,0,0,0,0,0,0,-0.892889436,0,0,0,12.89236,10.91835638
ppg19_1,12-05-2019,2019,5,19,13.99677804,1.505413905,0,0,0,0,0,0,-0.893831302,0,-1.48175331,0,9.13224,13.12660733
ppg19_1,19-05-2019,2019,5,20,10.18140821,1.505413905,0,0,0,0,0,0,-0.895715035,0,0,0,11.46756,10.79110708
ppg19_1,26-05-2019,2019,5,21,12.36750914,1.505413905,0,0,0,0,0,0,-0.893831302,0,0,0,14.90788,12.97909174
ppg19_1,02-06-2019,2019,6,22,11.80448881,1.505413905,0,0,0,0.276335663,0,0,-0.894773169,1.957440822,0,-0.526693122,14.38112,14.12221291
ppg19_1,09-06-2019,2019,6,23,13.12286355,1.505413905,0,0,0,0,0,0,-0.894773169,0,0,0,11.9912,13.73350429
ppg19_1,16-06-2019,2019,6,24,10.11402518,1.505413905,0,0,0,0,0,0,-0.895715035,0,-1.48175331,-0.526693122,11.61004,8.715277618
ppg19_1,23-06-2019,2019,6,25,13.6989295,1.505413905,2.253579185,0,0,0,0,0,-0.896656902,0,0,0,17.98836,16.56126568
ppg19_1,30-06-2019,2019,6,26,10.5542959,1.505413905,0,0,0,0,0,0,-0.896656902,0,-1.48175331,0,10.1816,9.681299591
ppg19_1,07-07-2019,2019,7,27,11.03652356,1.505413905,0,0,0,0,0,0,-0.896656902,0,-1.48175331,0,10.65426,10.16352725
ppg19_1,14-07-2019,2019,7,28,11.0047353,1.505413905,0,0,0,0,0,0,-0.897598768,0,0,-0.526693122,11.65424,11.08585732
ppg19_1,21-07-2019,2019,7,29,9.097501592,1.505413905,0,0,0,0,0,1.010961854,-0.900424368,0,0,0,13.3562,10.71345298
ppg19_1,28-07-2019,2019,7,30,7.660569383,1.505413905,0,0,0,0,0,1.010961854,-0.900424368,0,0,0,10.55496,9.276520775
ppg19_1,04-08-2019,2019,8,31,8.797723238,1.505413905,0,0,0,0,0,1.010961854,-0.901366234,0,0,-0.526693122,11.10772,9.886039642
ppg19_1,11-08-2019,2019,8,32,6.615576871,1.505413905,0,0,0,0,0,0,-0.901366234,0,-1.48175331,0,6.02992,5.737871232
ppg19_1,18-08-2019,2019,8,33,8.14965264,1.505413905,0,0,0,0,0,0,-0.901366234,0,0,-0.526693122,8.15516,8.227007189
ppg19_1,25-08-2019,2019,8,34,7.347029551,1.505413905,2.253579185,0,0,0,1.575096435,0,-0.899482501,0,0,0,13.0416,11.78163658
ppg19_1,01-09-2019,2019,9,35,8.057284456,1.505413905,0,0,0,0,0,0,-0.898540635,0,0,0,8.75056,8.664157727
ppg19_1,08-09-2019,2019,9,36,5.920588381,1.505413905,0,0,0,0,0,0,-0.898540635,0,0,0,7.02468,6.527461652
ppg19_1,15-09-2019,2019,9,37,7.018916638,1.505413905,0,0,0,0,0,0,-0.900424368,0,-1.48175331,0,3.93276,6.142152865
ppg19_1,22-09-2019,2019,9,38,6.655956229,1.505413905,0,0,0,0,0,0,-0.900424368,0,-1.48175331,0,4.98212,5.779192456
ppg19_1,29-09-2019,2019,9,39,8.667417172,1.505413905,0,0,0,0,0,0,-0.902308101,0,0,0,6.48596,9.270522977
ppg19_1,06-10-2019,2019,10,40,10.02872787,1.505413905,2.253579185,0,3.376387154,0,0,0,-0.904191834,0,0,0,17.05548,16.25991628
ppg19_1,13-10-2019,2019,10,41,3.791234647,1.505413905,0,0,0,0,0,0,-0.9051337,0,-1.48175331,0,3.61244,2.909761541
ppg19_1,20-10-2019,2019,10,42,4.536939688,1.505413905,0,0,0,0,0,0,-0.907017433,0,0,0,5.47508,5.13533616
ppg19_1,27-10-2019,2019,10,43,4.486609335,1.505413905,0,0,0,0,0,0,-0.9079593,0,-1.48175331,0,3.72372,3.60231063
ppg19_1,03-11-2019,2019,11,44,5.274507992,1.505413905,0,0,0,0,0,0,-0.908901166,0,-1.48175331,-0.526693122,3.76376,3.862574299
ppg19_1,10-11-2019,2019,11,45,4.423725343,1.505413905,0,0,0,0,0,0,-0.9079593,0,0,0,4.40544,5.021179948
ppg19_1,17-11-2019,2019,11,46,5.908482718,1.505413905,0,0,0,0,0,0,-0.9079593,0,0,0,5.16152,6.505937323
ppg19_1,24-11-2019,2019,11,47,5.842370951,1.505413905,0,0,0,0,0,0,-0.907017433,0,0,0,5.25876,6.440767423
ppg19_1,01-12-2019,2019,12,48,10.95916421,1.505413905,2.253579185,0,3.376387154,0,0,0,-0.906075567,0,0,0,13.2522,17.18846889
ppg19_1,08-12-2019,2019,12,49,6.645196444,1.505413905,0,0,0,0,0,0,-0.9051337,0,0,0,6.903,7.245476649
ppg19_1,15-12-2019,2019,12,50,10.36627982,1.505413905,0,0,0,0,0,0,-0.903249967,0,0,0,10.10464,10.96844375
ppg19_1,22-12-2019,2019,12,51,13.58572666,1.505413905,0,0,0,0,0,0,-0.9051337,0,0,-0.526693122,12.70984,13.65931374
ppg19_1,29-12-2019,2019,12,52,4.500219638,1.505413905,0,0,0,0,0,0,-0.899482501,0,0,0,3.5048,5.106151042
ppg19_1,05-01-2020,2020,1,1,4.375338627,1.505413905,0,0,0,0,0,0,-0.900424368,0,0,0,4.19432,4.980328164
ppg19_1,12-01-2020,2020,1,2,4.784455624,1.505413905,0,0,0,0.276335663,0,0,-0.901366234,0,0,0,5.39604,5.664838958
ppg19_1,19-01-2020,2020,1,3,4.248379799,1.505413905,0,0,0,0,0,0,-0.901366234,0,0,0,4.73512,4.852427469
ppg19_1,26-01-2020,2020,1,4,4.087333775,1.505413905,0,0,0,0,0,0,-0.899482501,1.957440822,-1.48175331,0,4.43716,5.168952691
ppg19_1,02-02-2020,2020,2,5,3.466144133,1.505413905,0,0,0,0,0,1.010961854,-0.898540635,0,0,-0.526693122,3.53808,4.557286135
ppg19_1,09-02-2020,2020,2,6,3.385864971,1.505413905,0,0,0,0,0,0,-0.901366234,0,0,-0.526693122,4.13868,3.46321952
ppg19_1,16-02-2020,2020,2,7,4.246818125,1.505413905,0,0,0,0,0,0,-0.898540635,0,0,0,4.8542,4.853691395
ppg19_1,23-02-2020,2020,2,8,3.468059737,1.505413905,0,0,0,0,0,0,-0.899482501,0,0,0,4.59056,4.073991141
ppg19_1,01-03-2020,2020,3,9,4.305551367,1.505413905,0,0,0,0,0,0,-0.899482501,0,-1.48175331,0,5.33468,3.429729461
ppg19_1,08-03-2020,2020,3,10,4.299318086,1.505413905,0,0,0,0,0,0,-0.900424368,0,0,0,6.13652,4.904307623
ppg19_1,15-03-2020,2020,3,11,5.430996146,1.505413905,0,0,0,0,0,0,-0.899482501,0,-1.48175331,0,7.20252,4.555174239
ppg19_1,22-03-2020,2020,3,12,4.670636462,1.505413905,0,0,0,0,0,1.010961854,-0.898540635,0,0,0,7.32004,6.288471586
ppg19_1,29-03-2020,2020,3,13,7.165167608,1.505413905,0,0,0,0,0,1.010961854,-0.895715035,0,0,0,9.72712,8.785828332
ppg19_1,05-04-2020,2020,4,14,8.282767959,1.505413905,0,0,0,0,0,0,-0.888180103,0,0,0,9.90236,8.900001761
ppg19_1,12-04-2020,2020,4,15,9.117967136,1.505413905,0,0,0,0,0,0,-0.649887881,0,0,0,13.01664,9.973493161
ppg19_1,19-04-2020,2020,4,16,13.7827243,1.505413905,0,0,0,0.276335663,0,0,-0.337188205,0,0,0,12.95944,15.22728566
ppg19_1,26-04-2020,2020,4,17,10.49402882,1.505413905,0,0,0,0.276335663,0,0,-0.125268244,0,-1.48175331,0,14.01088,10.66875683
ppg19_1,03-05-2020,2020,5,18,10.30583191,1.505413905,0,0,0,0,0,0,-0.05651199,0,-1.48175331,0,10.803,10.27298051
ppg19_1,10-05-2020,2020,5,19,13.99677804,1.505413905,2.253579185,0,3.376387154,0,0,0,-0.032023461,0,0,0,24.24084,21.10013483
ppg19_1,17-05-2020,2020,5,20,10.18140821,1.505413905,0,0,0,0,1.575096435,0,-0.027314128,0,-1.48175331,0,12.12222,11.75285111
ppg19_1,24-05-2020,2020,5,21,12.36750914,1.505413905,0,0,0,0,1.575096435,0,-0.016953597,0,-1.48175331,0,13.60788,13.94931257
ppg19_1,31-05-2020,2020,5,22,11.80448881,1.505413905,0,0,0,0,0,0,-0.01883733,0,0,0,12.81488,13.29106539
ppg19_1,07-06-2020,2020,6,23,13.12286355,1.505413905,0,0,0,0,0,0,-0.01883733,0,0,0,18.81048,14.60944013
ppg19_1,14-06-2020,2020,6,24,10.11402518,1.505413905,0,0,0,0,0,0,-0.013186131,0,0,0,11.79256,11.60625295
ppg19_1,21-06-2020,2020,6,25,13.6989295,1.505413905,0,0,0,0,0,0,-0.011302398,0,0,0,13.3874,15.193041
ppg19_1,28-06-2020,2020,6,26,10.5542959,1.505413905,0,0,0,0,0,0,-0.003767466,0,0,0,14.51476,12.05594234
ppg19_1,05-07-2020,2020,7,27,11.03652356,1.505413905,0,0,0,0,0,0,-0.000941866,1.957440822,0,0,15.16942,14.49843642
ppg19_1,12-07-2020,2020,7,28,11.0047353,1.505413905,0,0,0,0,0,0,0,0,0,0,13.94848,12.51014921
ppg19_1,19-07-2020,2020,7,29,9.097501592,1.505413905,0,0,0,0,0,0,0,0,-1.48175331,0,7.28,9.121162187
ppg19_1,26-07-2020,2020,7,30,7.660569383,1.505413905,0,0,0,0,0,0,0,0,0,0,6.92016,9.165983289
ppg19_1,02-08-2020,2020,8,31,8.797723238,1.505413905,0,0,0,0,0,0,-0.000941866,0,0,-0.526693122,6.84372,9.775502156
ppg19_1,09-08-2020,2020,8,32,6.615576871,1.505413905,0,0,0,0,0,0,-0.000941866,0,-1.48175331,0,5.15112,6.6382956
ppg19_1,16-08-2020,2020,8,33,8.14965264,1.505413905,0,0,0,0,0,0,-0.000941866,0,0,0,8.36264,9.654124678
ppg19_1,23-08-2020,2020,8,34,7.347029551,1.505413905,0,0,0,0,0,0,-0.000941866,0,-1.48175331,0,5.16308,7.36974828
ppg19_1,30-08-2020,2020,8,35,8.057284456,1.505413905,0,0,0,0,0,0,-0.000941866,0,0,0,9.56072,9.561756495
ppg19_1,06-09-2020,2020,9,36,5.920588381,1.505413905,0,0,0,0,0,0,-0.001883733,0,-1.48175331,0,6.9004,5.942365243
ppg19_1,13-09-2020,2020,9,37,7.018916638,1.505413905,2.253579185,0,0,0,0,1.010961854,-0.001883733,0,0,0,12.97608,11.78698785
ppg19_1,20-09-2020,2020,9,38,6.655956229,1.505413905,0,0,0,0,0,0,-0.001883733,0,0,0,9.76716,8.159486401
ppg19_1,27-09-2020,2020,9,39,8.667417172,1.505413905,0,0,0,0,0,0,-0.000941866,0,0,0,10.9096,10.17188921
