PPG,Date,Year,Month,Week,Seasonal_index,const,promo_catalogue,promo_ins,display_platinum,display_gold,display_silver,display_bronze,Retailer 1_Promo.Group 6_promo_catalogue,Retailer 0_Promo.Group 3_Wtd.Selling.Dist,Retailer 1_Promo.Group 19_display_bronze,Retailer 1_Promo.Group 20_promo_ins,Vol.Sales,Vol.Sales_pred
ppg22_1,05-08-2018,2018,8,31,1.473605096,0.18194141,0,0,0,0,0,0,0,0.969428677,0,-0.516419275,0,2.108555908
ppg22_1,12-08-2018,2018,8,32,0.8982443,0.18194141,0,0,0,0,0,0,0,0.970154705,0,0,0,2.050340414
ppg22_1,19-08-2018,2018,8,33,1.412466358,0.18194141,0,0,0,0,0,0,0,0.96924717,-0.462990596,0,0,2.100664342
ppg22_1,26-08-2018,2018,8,34,1.700972611,0.18194141,0,0,0,0,0,0,-0.820424745,0.969428677,-0.462990596,0,0,1.568927357
ppg22_1,02-09-2018,2018,9,35,1.518417609,0.18194141,0,0,0,0,0,0,0,0.97160676,0,-0.516419275,0,2.155546505
ppg22_1,09-09-2018,2018,9,36,1.099723349,0.18194141,0,0,0,0.106913745,0,0,-0.820424745,0.973784844,0,0,0.04212,1.541938603
ppg22_1,16-09-2018,2018,9,37,1.989837108,0.18194141,0,0,0,0,0,0,0,0.973966351,0,-0.516419275,0.75036,2.629325594
ppg22_1,23-09-2018,2018,9,38,2.461446022,0.18194141,0,0,0,0,0,0,-0.820424745,0.971788267,0,0,2.85324,2.794750954
ppg22_1,30-09-2018,2018,9,39,3.475680139,0.18194141,0,0,0,0,0,0,0,0.95309305,0,0,5.49224,4.610714599
ppg22_1,07-10-2018,2018,10,40,3.191584346,0.18194141,0,0,0,0,0,0,-0.820424745,0.897007399,0,0,2.73884,3.45010841
ppg22_1,14-10-2018,2018,10,41,2.280742517,0.18194141,0,0,0,0,0,0,0,0.874500536,0,-0.516419275,3.38364,2.820765189
ppg22_1,21-10-2018,2018,10,42,2.659583227,0.18194141,0,0,0,0,0,0.686470679,-0.820424745,0.861432035,0,0,3.43512,3.569002606
ppg22_1,28-10-2018,2018,10,43,2.745063243,0.18194141,0,0,0,0,0,0.686470679,-0.820424745,0.828216261,0,0,3.7024,3.621266848
ppg22_1,04-11-2018,2018,11,44,3.112740465,0.18194141,0,0,0,0,0,0.686470679,0,0.815873788,-0.462990596,0,4.37684,4.334035747
ppg22_1,11-11-2018,2018,11,45,2.320362636,0.18194141,0,0,0,0,0,0,-0.820424745,0.80443885,-0.462990596,0,3.04772,2.023327555
ppg22_1,18-11-2018,2018,11,46,2.932329811,0.18194141,0,0,0,0,0,0,0,0.797723092,0,0,3.89844,3.911994312
ppg22_1,25-11-2018,2018,11,47,2.058254109,0.18194141,0,0,0,0,0,0,0,0.790825828,0,-0.516419275,2.28124,2.514602072
ppg22_1,02-12-2018,2018,12,48,3.831082227,0.18194141,0,0,0,0,0,0,-0.820424745,0.788829251,0,0,3.59008,3.981428143
ppg22_1,09-12-2018,2018,12,49,2.642383669,0.18194141,0,0,0,0,0,0,-0.820424745,0.788829251,0,0,3.37064,2.792729585
ppg22_1,16-12-2018,2018,12,50,3.242632809,0.18194141,0,0,0,0,0,0,0,0.789010758,0,-0.516419275,3.9936,3.697165702
ppg22_1,23-12-2018,2018,12,51,3.206496555,0.18194141,0,0,0,0,0,0,0,0.790644321,0,-0.516419275,4.04664,3.662663011
ppg22_1,30-12-2018,2018,12,52,2.444287474,0.18194141,0,0,0,0,0,0,0,0.785017605,0,-0.516419275,3.41848,2.894827214
ppg22_1,06-01-2019,2019,1,1,2.799129835,0.18194141,0,0,0,0,0,0,0,0.785380619,0,0,4.12984,3.766451863
ppg22_1,13-01-2019,2019,1,2,2.787945781,0.18194141,0,0,0,0.106913745,0,0,0,0.78592514,0,0,4.14544,3.862726075
ppg22_1,20-01-2019,2019,1,3,1.951259085,0.18194141,0,0,0,0,0.668971273,0,-0.820424745,0.781387466,0,0,2.24068,2.763134488
ppg22_1,27-01-2019,2019,1,4,1.704295779,0.18194141,0,0,0,0,0.668971273,0,0,0.784654591,0,-0.516419275,3.05656,2.823443778
ppg22_1,03-02-2019,2019,2,5,1.788577924,0.18194141,0,0,0,0,0,0,0,0.787195688,0,0,3.20528,2.757715022
ppg22_1,10-02-2019,2019,2,6,1.77543822,0.18194141,0,0,0,0,0,0,-0.820424745,0.786651167,0,0,2.8548,1.923606052
ppg22_1,17-02-2019,2019,2,7,2.395773647,0.18194141,0,0,0,0,0,0,0,0.787740209,0,0,3.7778,3.365455266
ppg22_1,24-02-2019,2019,2,8,1.870239803,0.18194141,0,0,0,0,0,0,-0.820424745,0.787014181,0,0,2.55684,2.01877065
ppg22_1,03-03-2019,2019,3,9,1.770432969,0.18194141,0,0,0,0,0,0,0,0.787195688,0,0,3.03264,2.739570067
ppg22_1,10-03-2019,2019,3,10,1.964132101,0.18194141,0,0,0,0,0,0,0,0.787921716,0,0,3.33164,2.933995227
ppg22_1,17-03-2019,2019,3,11,1.483750433,0.18194141,0,0,0,0,0,0,-0.820424745,0.795545008,0,0,2.09144,1.640812107
ppg22_1,24-03-2019,2019,3,12,2.110254891,0.18194141,0,0,0,0,0,0.686470679,0,0.798812134,0,-0.516419275,2.75132,3.261059839
ppg22_1,31-03-2019,2019,3,13,2.605465899,0.18194141,0,0,0,0,0,0.686470679,0,0.803531315,-0.462990596,0,3.81264,3.814418707
ppg22_1,07-04-2019,2019,4,14,2.185444197,0.18194141,0,0,0,0,0,0.686470679,0,0.804620357,-0.462990596,0,3.8142,3.395486047
ppg22_1,14-04-2019,2019,4,15,2.088146412,0.18194141,0,0,0,0,0,0.686470679,-0.820424745,0.806616933,-0.462990596,0,2.9926,2.479760093
ppg22_1,21-04-2019,2019,4,16,2.13549102,0.18194141,0,0,0,0,0,0,0,0.810065565,0,0,3.13092,3.127497995
ppg22_1,28-04-2019,2019,4,17,1.636301862,0.18194141,0,0,0,0,0,0,0,0.810428579,0,-0.516419275,2.405,2.112252577
ppg22_1,05-05-2019,2019,5,18,1.840705451,0.18194141,0,0,0,0,0,0,0,0.814421732,0,0,3.10856,2.837068593
ppg22_1,12-05-2019,2019,5,19,2.303416138,0.18194141,0,0,0,0,0,0,-0.820424745,0.816781323,0,0,1.6068,2.481714126
ppg22_1,19-05-2019,2019,5,20,1.464365535,0.18194141,0,0,0,0,0,0,0,0.833479963,0,-0.516419275,2.55996,1.963367634
ppg22_1,26-05-2019,2019,5,21,1.858566359,0.18194141,0,0,0,0,0,0,0,0.862702584,0,0,3.51416,2.903210352
ppg22_1,02-06-2019,2019,6,22,1.875749862,0.18194141,0,0,0,0.106913745,0,0,0,0.864336147,0,-0.516419275,3.06488,2.512521888
ppg22_1,09-06-2019,2019,6,23,2.287875231,0.18194141,0,0,0,0,0,0.686470679,0,0.857801896,0,0,3.96136,4.014089216
ppg22_1,16-06-2019,2019,6,24,1.831845303,0.18194141,0,0,0,0.106913745,0,0,-0.820424745,0.850904631,0,0,2.69724,2.151180344
ppg22_1,23-06-2019,2019,6,25,2.632332117,0.18194141,1.756915171,0,0,0,0,0.686470679,0,0.849089562,0,0,5.24316,6.106748939
ppg22_1,30-06-2019,2019,6,26,2.013639998,0.18194141,0,0,0,0,0,0,-0.820424745,0.99846979,0,0,2.69568,2.373626454
ppg22_1,07-07-2019,2019,7,27,1.95650888,0.18194141,0,0,0,0,0,0,-0.820424745,1.193226759,0,0,2.28072,2.511252304
ppg22_1,14-07-2019,2019,7,28,2.257786268,0.18194141,0,0,0,0,0,0,0,1.198127447,0,-0.516419275,2.81996,3.12143585
ppg22_1,21-07-2019,2019,7,29,2.145375799,0.18194141,0,0,0,0,0,0.686470679,0,1.19976101,-0.462990596,0,3.78716,3.750558302
ppg22_1,28-07-2019,2019,7,30,2.390461132,0.18194141,0,0,0,0,0,0.686470679,0,1.194860322,-0.462990596,0,4.02844,3.990742947
ppg22_1,04-08-2019,2019,8,31,1.473605096,0.18194141,0,0,0,0,0,0,0,1.201031559,-0.462990596,-0.516419275,3.04356,1.877168194
ppg22_1,11-08-2019,2019,8,32,0.8982443,0.18194141,0,0,0,0,0,0,-0.820424745,1.202846628,0,0,2.11224,1.462607593
ppg22_1,18-08-2019,2019,8,33,1.412466358,0.18194141,0,0,0,0,0,0,0,1.221541845,0,-0.516419275,3.03316,2.299530339
ppg22_1,25-08-2019,2019,8,34,1.700972611,0.18194141,1.756915171,0,0,0,0.668971273,0,0,1.402141271,0,0,6.00028,5.710941734
ppg22_1,01-09-2019,2019,9,35,1.518417609,0.18194141,0,0,0,0,0,0,0,1.501425578,0,0,3.49336,3.201784597
ppg22_1,08-09-2019,2019,9,36,1.099723349,0.18194141,0,0,0,0,0,0,0,1.455504317,0,-0.516419275,2.25004,2.220749802
ppg22_1,15-09-2019,2019,9,37,1.989837108,0.18194141,0,0,0,0,0,0,-0.820424745,1.437898142,0,0,2.3426,2.789251915
ppg22_1,22-09-2019,2019,9,38,2.461446022,0.18194141,0,0,0,0,0,0,-0.820424745,1.412668675,0,0,3.19852,3.235631361
ppg22_1,29-09-2019,2019,9,39,3.475680139,0.18194141,0,0,0,0,0,0,0,1.39978168,0,0,4.35604,5.057403229
ppg22_1,06-10-2019,2019,10,40,3.191584346,0.18194141,1.756915171,0,-0.104459558,0,0,0,0,1.383990575,0,0,6.25404,6.409971943
ppg22_1,13-10-2019,2019,10,41,2.280742517,0.18194141,0,0,0,0,0,0,-0.820424745,1.382175505,0,0,2.50276,3.024434687
ppg22_1,20-10-2019,2019,10,42,2.659583227,0.18194141,0,0,0,0,0,0,0,1.380541943,0,0,3.62232,4.22206658
ppg22_1,27-10-2019,2019,10,43,2.745063243,0.18194141,0,0,0,0.106913745,0,0,-0.820424745,1.37890838,0,0,3.52248,3.592402033
ppg22_1,03-11-2019,2019,11,44,3.112740465,0.18194141,0,0,0,0,0,0,-0.820424745,1.37709331,0,0,3.74816,3.851350441
ppg22_1,10-11-2019,2019,11,45,2.320362636,0.18194141,0,0,0,0,0,0,0,1.370196046,0,-0.516419275,3.09036,3.356080817
ppg22_1,17-11-2019,2019,11,46,2.932329811,0.18194141,0,0,0,0,0,0,0,1.365476865,0,0,3.84072,4.479748085
ppg22_1,24-11-2019,2019,11,47,2.058254109,0.18194141,0,0,0,0,0,0,0,1.358942614,0,-0.516419275,3.32332,3.082718859
ppg22_1,01-12-2019,2019,12,48,3.831082227,0.18194141,1.756915171,0,-0.104459558,0,0,0,0,1.356583024,0,0,7.0902,7.022062274
ppg22_1,08-12-2019,2019,12,49,2.642383669,0.18194141,0,0,0,0,0,0,0,1.35622001,0,-0.516419275,3.65716,3.664125814
ppg22_1,15-12-2019,2019,12,50,3.242632809,0.18194141,0,0,0,0,0,0,0,1.354041926,0,0,4.68468,4.778616145
ppg22_1,22-12-2019,2019,12,51,3.206496555,0.18194141,0,0,0,0,0,0,0,1.368017962,0,-0.516419275,4.498,4.240036652
ppg22_1,29-12-2019,2019,12,52,2.444287474,0.18194141,0,0,0,0,0,0,0,1.357672066,0,-0.516419275,2.96868,3.467481675
ppg22_1,05-01-2020,2020,1,1,2.799129835,0.18194141,0,0,0,0,0,0,0,1.359850149,0,-0.516419275,4.6384,3.824502119
ppg22_1,12-01-2020,2020,1,2,2.787945781,0.18194141,0,0,0,0.106913745,0,0,0,1.359487135,0,0,4.58796,4.43628807
ppg22_1,19-01-2020,2020,1,3,1.951259085,0.18194141,0,0,0,0,0,0,0,1.347326169,0,0,3.86776,3.480526664
ppg22_1,26-01-2020,2020,1,4,1.704295779,0.18194141,0,0,0,0,0,0,-0.820424745,1.348596718,0,0,2.2854,2.414409161
ppg22_1,02-02-2020,2020,2,5,1.788577924,0.18194141,0,0,0,0,0,0.686470679,0,1.351863843,-0.462990596,-0.516419275,2.40084,3.029443985
ppg22_1,09-02-2020,2020,2,6,1.77543822,0.18194141,0,0,0,0,0,0,0,1.353860419,0,-0.516419275,2.70816,2.794820774
ppg22_1,16-02-2020,2020,2,7,2.395773647,0.18194141,0,0,0,0,0,0,0,1.353315899,0,0,3.7284,3.931030956
ppg22_1,23-02-2020,2020,2,8,1.870239803,0.18194141,0,0,0,0,0,0,0,1.351863843,0,0,3.30044,3.404045056
ppg22_1,01-03-2020,2020,3,9,1.770432969,0.18194141,0,0,0,0,0,0,-0.820424745,1.353860419,0,0,2.51576,2.485810053
ppg22_1,08-03-2020,2020,3,10,1.964132101,0.18194141,0,0,0,0,0,0,0,1.356038503,0,-0.516419275,2.8236,2.98569274
ppg22_1,15-03-2020,2020,3,11,1.483750433,0.18194141,0,0,0,0,0,0,-0.820424745,1.352771378,0,0,2.5558,2.198038476
ppg22_1,22-03-2020,2020,3,12,2.110254891,0.18194141,0,0,0,0,0,0.686470679,0,1.349867266,-0.462990596,-0.516419275,3.85684,3.349124376
ppg22_1,29-03-2020,2020,3,13,2.605465899,0.18194141,0,0,0,0,0,0.686470679,0,1.359305628,-0.462990596,0,4.34876,4.370193021
ppg22_1,05-04-2020,2020,4,14,2.185444197,0.18194141,0,0,0,0,0,0,0,1.359668642,0,-0.516419275,3.03524,3.210634974
ppg22_1,12-04-2020,2020,4,15,2.088146412,0.18194141,0,0,0,0,0,0,0,1.353315899,0,0,3.54796,3.62340372
ppg22_1,19-04-2020,2020,4,16,2.13549102,0.18194141,0,0,0,0.106913745,0,0,0,1.351863843,0,0,3.55836,3.776210017
ppg22_1,26-04-2020,2020,4,17,1.636301862,0.18194141,0,0,0,0.106913745,0,0,-0.820424745,1.361120698,0,0,2.72064,2.46585297
ppg22_1,03-05-2020,2020,5,18,1.840705451,0.18194141,0,0,0,0,0,0,-0.820424745,1.3663844,0,0,2.6598,2.568606515
ppg22_1,10-05-2020,2020,5,19,2.303416138,0.18194141,1.756915171,0,-0.104459558,0,0,0,0,1.372192622,0,0,5.5978,5.510005783
ppg22_1,17-05-2020,2020,5,20,1.464365535,0.18194141,0,0,0,0,0,0,-0.820424745,1.379815915,0,0,2.02956,2.205698115
ppg22_1,24-05-2020,2020,5,21,1.858566359,0.18194141,0,0,0,0,0,0,-0.820424745,1.379815915,0,0,2.31244,2.599898938
ppg22_1,31-05-2020,2020,5,22,1.875749862,0.18194141,0,0,0,0,0,0,0,1.380904957,0,-0.516419275,2.81268,2.922176953
ppg22_1,07-06-2020,2020,6,23,2.287875231,0.18194141,0,0,0,0,0,0,0,1.379089887,0,-0.516419275,3.20892,3.332487253
ppg22_1,14-06-2020,2020,6,24,1.831845303,0.18194141,0,0,0,0,0,0,0,1.379815915,0,-0.516419275,3.04096,2.877183353
ppg22_1,21-06-2020,2020,6,25,2.632332117,0.18194141,0,0,0,0,0,0,0,1.379997422,0,-0.516419275,3.0108,3.677851674
ppg22_1,28-06-2020,2020,6,26,2.013639998,0.18194141,0,0,0,0,0,0,0,1.377819338,0,-0.516419275,3.61036,3.056981472
ppg22_1,05-07-2020,2020,7,27,1.95650888,0.18194141,0,0,0,0,0,0,0,1.377819338,0,-0.516419275,3.84436,2.999850353
ppg22_1,12-07-2020,2020,7,28,2.257786268,0.18194141,0,0,0,0,0,0,0,1.379271394,0,0,4.24944,3.818999071
ppg22_1,19-07-2020,2020,7,29,2.145375799,0.18194141,0,0,0,0,0,0,-0.820424745,1.378000845,0,0,2.93696,2.884893309
ppg22_1,26-07-2020,2020,7,30,2.390461132,0.18194141,0,0,0,0,0,0,0,1.379452901,0,0,3.46268,3.951855443
ppg22_1,02-08-2020,2020,8,31,1.473605096,0.18194141,0,0,0,0,0,0,0,1.380178929,0,0,3.8792,3.035725434
ppg22_1,09-08-2020,2020,8,32,0.8982443,0.18194141,0,0,0,0,0,0,-0.820424745,1.382901533,0,0,2.10912,1.642662498
ppg22_1,16-08-2020,2020,8,33,1.412466358,0.18194141,0,0,0,0,0,0,0,1.379997422,0,0,3.60308,2.97440519
ppg22_1,23-08-2020,2020,8,34,1.700972611,0.18194141,0,0,0,0,0,0,-0.820424745,1.328267938,0,0,2.00564,2.390757213
ppg22_1,30-08-2020,2020,8,35,1.518417609,0.18194141,0,0,0,0,0,0,0,1.299045317,0,-0.516419275,3.64208,2.482985062
ppg22_1,06-09-2020,2020,9,36,1.099723349,0.18194141,0,0,0,0,0,0,-0.820424745,1.252398028,0,0,2.85844,1.713638043
ppg22_1,13-09-2020,2020,9,37,1.989837108,0.18194141,1.756915171,0,0,0,0,0.686470679,0,1.240055555,-0.462990596,0,5.96648,5.392229327
ppg22_1,20-09-2020,2020,9,38,2.461446022,0.18194141,0,0,0,0,0,0,0,1.22480897,0,0,4.44392,3.868196402
ppg22_1,27-09-2020,2020,9,39,3.475680139,0.18194141,0,0,0,0,0,0,0,1.217185678,0,0,4.42936,4.874807227
