PPG,Date,Year,Month,Week,Seasonal_index,const,promo_catalogue,promo_ins,display_platinum,display_gold,display_silver,display_bronze,Retailer 1_Promo.Group 6_promo_catalogue,Retailer 0_Promo.Group 3_Wtd.Selling.Dist,Retailer 0_Promo.Group 6_promo_catalogue,Vol.Sales,Vol.Sales_pred
ppg20_1,05-08-2018,2018,8,31,4.180618254,-5.62511652,0,3.457694699,4.622163461,0,0,0,0,5.085924096,1.046015047,8.20194,12.76729904
ppg20_1,12-08-2018,2018,8,32,10.47432985,-5.62511652,0,0,0,0,0,0,0,5.089733063,0,4.81414,9.938946391
ppg20_1,19-08-2018,2018,8,33,3.724334352,-5.62511652,0,0,0,0,0,0,0,5.084971854,0,4.40646,3.184189685
ppg20_1,26-08-2018,2018,8,34,9.597073016,-5.62511652,3.917583477,0,0,4.017959144,0,0,3.917583477,5.085924096,0,19.58976,20.91100669
ppg20_1,02-09-2018,2018,9,35,3.499022906,-5.62511652,0,3.457694699,0,0,0,0,0,5.097350999,1.046015047,7.73358,7.47496713
ppg20_1,09-09-2018,2018,9,36,10.77447204,-5.62511652,3.917583477,0,0,0,1.221858626,0,3.917583477,5.108777902,0,17.80672,19.315159
ppg20_1,16-09-2018,2018,9,37,7.948176332,-5.62511652,0,3.457694699,0,0,0,0,0,5.109730144,1.046015047,7.58434,11.9364997
ppg20_1,23-09-2018,2018,9,38,6.93474816,-5.62511652,3.917583477,0,0,4.017959144,0,0,3.917583477,5.098303241,0,11.87648,18.26106098
ppg20_1,30-09-2018,2018,9,39,3.805998838,-5.62511652,0,0,0,0,0,0,0,5.000222323,0,4.95288,3.181104641
ppg20_1,07-10-2018,2018,10,40,11.97570002,-5.62511652,3.917583477,0,4.622163461,0,0,0,3.917583477,4.70597957,1.046015047,31.86698,24.55990853
ppg20_1,14-10-2018,2018,10,41,10.08233388,-5.62511652,0,3.457694699,0,0,0,0.231425618,0,4.587901571,0,12.84952,12.73423925
ppg20_1,21-10-2018,2018,10,42,5.875070102,-5.62511652,3.917583477,0,4.622163461,0,0,0,3.917583477,4.519340153,1.046015047,14.7774,18.2726392
ppg20_1,28-10-2018,2018,10,43,7.40843827,-5.62511652,3.917583477,0,4.622163461,0,0,0,3.917583477,4.345079882,1.046015047,16.8221,19.63174709
ppg20_1,04-11-2018,2018,11,44,5.471446313,-5.62511652,0,0,0,0,0,0,0,4.280327431,0,7.67204,4.126657224
ppg20_1,11-11-2018,2018,11,45,5.578828716,-5.62511652,3.917583477,0,4.622163461,0,0,0,3.917583477,4.22033619,0,12.84512,16.6313788
ppg20_1,18-11-2018,2018,11,46,2.192332108,-5.62511652,0,0,0,0,0,0,0,4.185103239,1.046015047,3.75978,1.798333874
ppg20_1,25-11-2018,2018,11,47,6.454576639,-5.62511652,0,3.457694699,0,0,0,0,0,4.148918046,1.046015047,15.71648,9.482087911
ppg20_1,02-12-2018,2018,12,48,3.402383241,-5.62511652,3.917583477,0,0,0,0,0,3.917583477,4.138443385,0,8.27404,9.75087706
ppg20_1,09-12-2018,2018,12,49,5.743556628,-5.62511652,3.917583477,0,4.622163461,0,0,0,3.917583477,4.138443385,0,12.07202,16.71421391
ppg20_1,16-12-2018,2018,12,50,3.80471524,-5.62511652,0,3.457694699,0,0,0,0.231425618,0,4.139395627,1.046015047,9.48032,7.05412971
ppg20_1,23-12-2018,2018,12,51,5.536340343,-5.62511652,0,3.457694699,0,0,0,0,0,4.147965804,0,9.6701,7.516884326
ppg20_1,30-12-2018,2018,12,52,3.752355694,-5.62511652,0,3.457694699,0,0,0,0,0,4.118446305,0,7.08422,5.703380178
ppg20_1,06-01-2019,2019,1,1,2.102306,-5.62511652,0,0,0,0,0,0,0,4.120350789,1.046015047,4.08254,1.643555315
ppg20_1,13-01-2019,2019,1,2,2.124636493,-5.62511652,0,0,0,0,0,0,0,4.123207514,0,4.20992,0.622727487
ppg20_1,20-01-2019,2019,1,3,10.52804855,-5.62511652,3.917583477,0,0,4.017959144,0,0,3.917583477,4.099401466,1.046015047,32.00206,21.90147464
ppg20_1,27-01-2019,2019,1,4,8.523113984,-5.62511652,0,3.457694699,0,0,0,0,0,4.116541821,0,11.55414,10.47223398
ppg20_1,03-02-2019,2019,2,5,2.906032306,-5.62511652,0,0,0,0,0,0,0,4.129873208,1.046015047,4.38614,2.456804041
ppg20_1,10-02-2019,2019,2,6,5.344898675,-5.62511652,3.917583477,0,0,0,1.221858626,0,3.917583477,4.127016482,1.046015047,10.84798,13.94983926
ppg20_1,17-02-2019,2019,2,7,2.228621916,-5.62511652,0,0,0,0,0,0,0,4.132729934,0,4.51682,0.736235329
ppg20_1,24-02-2019,2019,2,8,4.259435206,-5.62511652,3.917583477,0,0,0,0,0.231425618,3.917583477,4.128920966,0,10.9641,10.82983222
ppg20_1,03-03-2019,2019,3,9,4.297730422,-5.62511652,0,0,0,0,0,0,0,4.129873208,1.046015047,4.71108,3.848502157
ppg20_1,10-03-2019,2019,3,10,6.638432969,-5.62511652,0,0,0,0,0,0,0,4.133682176,0,6.63938,5.146998625
ppg20_1,17-03-2019,2019,3,11,16.15707176,-5.62511652,3.917583477,0,4.622163461,0,0,0,3.917583477,4.173676336,1.046015047,20.07366,28.20897704
ppg20_1,24-03-2019,2019,3,12,5.700172683,-5.62511652,0,3.457694699,0,0,0,0.231425618,0,4.190816691,0,9.5625,7.95499317
ppg20_1,31-03-2019,2019,3,13,3.296355814,-5.62511652,0,0,0,0,0,0,0,4.215574981,1.046015047,3.663,2.932829321
ppg20_1,07-04-2019,2019,4,14,4.539667423,-5.62511652,0,0,0,0,0,0,0,4.221288432,0,3.68038,3.135839335
ppg20_1,14-04-2019,2019,4,15,5.611300527,-5.62511652,3.917583477,0,0,4.017959144,0,0,3.917583477,4.231763093,0,12.57322,16.0710732
ppg20_1,21-04-2019,2019,4,16,2.588023942,-5.62511652,0,0,0,0,0,0,0,4.24985569,0,3.48568,1.212763112
ppg20_1,28-04-2019,2019,4,17,6.360968206,-5.62511652,0,3.457694699,0,0,0,0,0,4.251760174,1.046015047,10.03924,9.491321605
ppg20_1,05-05-2019,2019,5,18,5.136606596,-5.62511652,0,0,0,0,0,0,0,4.272709496,0,3.24016,3.784199572
ppg20_1,12-05-2019,2019,5,19,7.053152046,-5.62511652,3.917583477,0,0,0,0,0,3.917583477,4.285088641,1.046015047,18.21336,14.59430617
ppg20_1,19-05-2019,2019,5,20,10.38010331,-5.62511652,0,3.457694699,0,4.017959144,0,0,0,4.372694897,0,7.97478,16.60333553
ppg20_1,26-05-2019,2019,5,21,5.854177044,-5.62511652,0,0,0,0,0,0,0,4.526005847,1.046015047,3.74682,5.801081417
ppg20_1,02-06-2019,2019,6,22,5.950790958,-5.62511652,0,3.457694699,0,0,0,0.231425618,0,4.534576024,0,10.33736,8.549370779
ppg20_1,09-06-2019,2019,6,23,4.068740115,-5.62511652,0,0,0,0,0,0,0,4.500295315,1.046015047,3.7884,3.989933956
ppg20_1,16-06-2019,2019,6,24,5.666313476,-5.62511652,3.917583477,0,0,0,0,0.231425618,3.917583477,4.464110122,0,9.9682,12.57189965
ppg20_1,23-06-2019,2019,6,25,3.653339789,-5.62511652,0,0,0,0,0,0,0,4.454587703,0,3.27272,2.482810971
ppg20_1,30-06-2019,2019,6,26,7.236598547,-5.62511652,3.917583477,0,0,0,0,0.231425618,3.917583477,5.238282803,0,13.17162,14.9163574
ppg20_1,07-07-2019,2019,7,27,10.78052642,-5.62511652,3.917583477,0,0,0,1.221858626,0,3.917583477,6.260038383,1.046015047,24.04886,21.51848891
ppg20_1,14-07-2019,2019,7,28,5.403151953,-5.62511652,0,3.457694699,0,0,0,0.231425618,0,6.285748915,1.046015047,12.01662,10.79891971
ppg20_1,21-07-2019,2019,7,29,5.299795764,-5.62511652,0,0,0,0,0,0,0,6.294319092,1.046015047,3.89268,7.015013383
ppg20_1,28-07-2019,2019,7,30,2.53474985,-5.62511652,0,0,0,0,0,0,0,6.268608561,0,3.7246,3.178241891
ppg20_1,04-08-2019,2019,8,31,4.180618254,-5.62511652,0,3.457694699,0,0,0,0.231425618,0,6.300984786,1.046015047,8.48584,9.591621884
ppg20_1,11-08-2019,2019,8,32,10.47432985,-5.62511652,3.917583477,0,4.622163461,0,0,0,3.917583477,6.310507205,0,22.64174,23.61705095
ppg20_1,18-08-2019,2019,8,33,3.724334352,-5.62511652,0,3.457694699,0,0,0,0.231425618,0,6.408588123,0,9.19072,8.196926271
ppg20_1,25-08-2019,2019,8,34,9.597073016,-5.62511652,0,0,0,0,0,0,0,7.356068833,0,5.30442,11.32802533
ppg20_1,01-09-2019,2019,9,35,3.499022906,-5.62511652,0,0,0,0,0,0,0,7.876945164,1.046015047,5.23686,6.796866596
ppg20_1,08-09-2019,2019,9,36,10.77447204,-5.62511652,0,3.457694699,0,0,0,0,0,7.636027958,0,24.88244,16.24307818
ppg20_1,15-09-2019,2019,9,37,7.948176332,-5.62511652,3.917583477,0,4.622163461,0,0,0,3.917583477,7.543660492,1.046015047,27.69316,23.37006577
ppg20_1,22-09-2019,2019,9,38,6.93474816,-5.62511652,3.917583477,0,4.622163461,0,0,0,3.917583477,7.411298865,0,18.38518,21.17826092
ppg20_1,29-09-2019,2019,9,39,3.805998838,-5.62511652,0,0,0,0,0,0,0,7.343689688,0,8.7989,5.524572006
ppg20_1,06-10-2019,2019,10,40,11.97570002,-5.62511652,0,0,0,0,0,0,0,7.260844641,1.046015047,11.57134,14.65744318
ppg20_1,13-10-2019,2019,10,41,10.08233388,-5.62511652,3.917583477,0,4.622163461,0,0,0,3.917583477,7.251322222,0,21.98216,24.16587
ppg20_1,20-10-2019,2019,10,42,5.875070102,-5.62511652,0,0,0,0,0,0,0,7.242752045,0,6.4262,7.492705627
ppg20_1,27-10-2019,2019,10,43,7.40843827,-5.62511652,3.917583477,0,0,0,0,0,3.917583477,7.234181868,0,9.69012,16.85267057
ppg20_1,03-11-2019,2019,11,44,5.471446313,-5.62511652,3.917583477,0,0,0,0,0.231425618,3.917583477,7.224659448,0,11.31724,15.13758181
ppg20_1,10-11-2019,2019,11,45,5.578828716,-5.62511652,0,3.457694699,0,0,0,0,0,7.188474255,1.046015047,7.14164,11.6458962
ppg20_1,17-11-2019,2019,11,46,2.192332108,-5.62511652,0,0,0,0,0,0,0,7.163715966,0,3.93426,3.730931553
ppg20_1,24-11-2019,2019,11,47,6.454576639,-5.62511652,0,3.457694699,0,0,0,0,0,7.129435256,1.046015047,7.5141,12.46260512
ppg20_1,01-12-2019,2019,12,48,3.402383241,-5.62511652,0,0,0,0,0,0,0,7.117056111,0,3.97012,4.894322832
ppg20_1,08-12-2019,2019,12,49,5.743556628,-5.62511652,0,3.457694699,0,0,0,0,0,7.115151628,0,8.36154,10.69128643
ppg20_1,15-12-2019,2019,12,50,3.80471524,-5.62511652,0,0,0,0,0,0,0,7.103724725,0,4.24006,5.283323444
ppg20_1,22-12-2019,2019,12,51,5.536340343,-5.62511652,0,3.457694699,0,0,0,0.231425618,0,7.177047352,0,9.78164,10.77739149
ppg20_1,29-12-2019,2019,12,52,3.752355694,-5.62511652,0,3.457694699,0,0,0,0,0,7.122769563,0,6.1655,8.707703436
ppg20_1,05-01-2020,2020,1,1,2.102306,-5.62511652,0,3.457694699,0,0,0,0,0,7.134196466,0,3.70502,7.069080645
ppg20_1,12-01-2020,2020,1,2,2.124636493,-5.62511652,0,0,0,0,0,0,0,7.132291982,1.046015047,3.63504,4.677827002
ppg20_1,19-01-2020,2020,1,3,10.52804855,-5.62511652,0,0,0,0,0,0,0,7.068491774,0,3.51406,11.97142381
ppg20_1,26-01-2020,2020,1,4,8.523113984,-5.62511652,3.917583477,0,4.622163461,0,0,0,3.917583477,7.075157467,0,21.52392,22.43048535
ppg20_1,02-02-2020,2020,2,5,2.906032306,-5.62511652,0,3.457694699,0,0,0,0.231425618,0,7.092297822,1.046015047,6.75752,9.108348971
ppg20_1,09-02-2020,2020,2,6,5.344898675,-5.62511652,0,3.457694699,0,0,0,0.231425618,0,7.102772483,1.046015047,8.8099,11.55769
ppg20_1,16-02-2020,2020,2,7,2.228621916,-5.62511652,0,0,0,0,0,0,0,7.099915757,0,3.6817,3.703421152
ppg20_1,23-02-2020,2020,2,8,4.259435206,-5.62511652,0,0,0,0,0,0,0,7.092297822,0,4.00268,5.726616507
ppg20_1,01-03-2020,2020,3,9,4.297730422,-5.62511652,3.917583477,0,0,0,0,0.231425618,3.917583477,7.102772483,1.046015047,12.30436,14.887994
ppg20_1,08-03-2020,2020,3,10,6.638432969,-5.62511652,0,3.457694699,0,0,0,0.231425618,0,7.114199386,0,19.83542,11.81663615
ppg20_1,15-03-2020,2020,3,11,16.15707176,-5.62511652,3.917583477,0,4.622163461,0,0,0,3.917583477,7.097059031,1.046015047,43.18292,31.13235974
ppg20_1,22-03-2020,2020,3,12,5.700172683,-5.62511652,0,3.457694699,0,0,0,0,0,7.08182316,0,12.00672,10.61457402
ppg20_1,29-03-2020,2020,3,13,3.296355814,-5.62511652,0,0,0,0,0,0,0,7.13133974,1.046015047,9.37288,5.848594081
ppg20_1,05-04-2020,2020,4,14,4.539667423,-5.62511652,0,3.457694699,4.622163461,0,0,0,0,7.133244224,0,14.68346,14.12765329
ppg20_1,12-04-2020,2020,4,15,5.611300527,-5.62511652,0,0,0,0,0,0,0,7.099915757,0,7.70748,7.086099763
ppg20_1,19-04-2020,2020,4,16,2.588023942,-5.62511652,0,0,0,0,0,0,0,7.092297822,0,6.56524,4.055205243
ppg20_1,26-04-2020,2020,4,17,6.360968206,-5.62511652,3.917583477,0,0,0,0,0,3.917583477,7.140862159,1.046015047,14.2208,16.75789585
ppg20_1,03-05-2020,2020,5,18,5.136606596,-5.62511652,3.917583477,0,0,0,1.221858626,0,3.917583477,7.168477175,0,17.81692,15.73699283
ppg20_1,10-05-2020,2020,5,19,7.053152046,-5.62511652,0,0,0,0,0,0,0,7.198948917,1.046015047,6.55248,9.672999489
ppg20_1,17-05-2020,2020,5,20,10.38010331,-5.62511652,3.917583477,0,4.622163461,0,0,0,3.917583477,7.238943077,0,34.14752,24.45126028
ppg20_1,24-05-2020,2020,5,21,5.854177044,-5.62511652,3.917583477,0,0,0,0,0,3.917583477,7.238943077,1.046015047,20.2356,16.3491856
ppg20_1,31-05-2020,2020,5,22,5.950790958,-5.62511652,0,3.457694699,0,0,0,0,0,7.244656529,0,12.07338,11.02802567
ppg20_1,07-06-2020,2020,6,23,4.068740115,-5.62511652,0,3.457694699,0,0,0,0,0,7.23513411,1.046015047,12.52284,10.18246745
ppg20_1,14-06-2020,2020,6,24,5.666313476,-5.62511652,0,3.457694699,0,0,0,0,0,7.238943077,0,11.33352,10.73783473
ppg20_1,21-06-2020,2020,6,25,3.653339789,-5.62511652,0,3.457694699,0,0,0,0,0,7.239895319,0,11.41206,8.725813287
ppg20_1,28-06-2020,2020,6,26,7.236598547,-5.62511652,0,3.457694699,0,0,0,0,0,7.228468416,0,13.90048,12.29764514
ppg20_1,05-07-2020,2020,7,27,10.78052642,-5.62511652,0,3.457694699,0,0,0,0,0,7.228468416,1.046015047,14.94702,16.88758806
ppg20_1,12-07-2020,2020,7,28,5.403151953,-5.62511652,0,0,0,0,0,0,0,7.236086351,1.046015047,7.53896,8.060136831
ppg20_1,19-07-2020,2020,7,29,5.299795764,-5.62511652,3.917583477,0,0,0,0,0.231425618,3.917583477,7.229420658,1.046015047,17.66776,16.01670752
ppg20_1,26-07-2020,2020,7,30,2.53474985,-5.62511652,0,0,0,0,0,0,0,7.237038593,0,6.0258,4.146671923
ppg20_1,02-08-2020,2020,8,31,4.180618254,-5.62511652,0,0,0,0,0,0,0,7.240847561,1.046015047,6.51024,6.842364342
ppg20_1,09-08-2020,2020,8,32,10.47432985,-5.62511652,3.917583477,0,4.622163461,0,0,0,3.917583477,7.25513119,0,32.44406,24.56167493
ppg20_1,16-08-2020,2020,8,33,3.724334352,-5.62511652,0,0,0,0,0,0,0,7.239895319,0,6.98192,5.339113151
ppg20_1,23-08-2020,2020,8,34,9.597073016,-5.62511652,3.917583477,0,0,4.017959144,0,0,3.917583477,6.968506372,0,32.52524,22.79358896
ppg20_1,30-08-2020,2020,8,35,3.499022906,-5.62511652,0,3.457694699,0,0,0,0,0,6.815195423,1.046015047,6.88644,9.192811554
ppg20_1,06-09-2020,2020,9,36,10.77447204,-5.62511652,3.917583477,0,4.622163461,0,0,0,3.917583477,6.570469249,0,16.65466,24.17715518
ppg20_1,13-09-2020,2020,9,37,7.948176332,-5.62511652,0,0,0,0,0,0,0,6.505716799,1.046015047,6.45986,9.874791658
ppg20_1,20-09-2020,2020,9,38,6.93474816,-5.62511652,0,0,0,0,0,0,0,6.425728477,0,7.16144,7.735360117
ppg20_1,27-09-2020,2020,9,39,3.805998838,-5.62511652,0,0,0,0,0,0,0,6.385734317,0,7.39464,4.566616635
