PPG,Date,Year,Month,Week,Seasonal_index,const,promo_catalogue,promo_ins,display_platinum,display_gold,display_silver,display_bronze,Retailer 1_Promo.Group 22_display_bronze,Retailer 0_Promo.Group 20_display_platinum,Vol.Sales,Vol.Sales_pred
ppg3_1,05-08-2018,2018,8,31,25.1031913,2.127590156,0,-0.358029488,14.93358682,0,0,0,0,0,20.0822,41.80633879
ppg3_1,12-08-2018,2018,8,32,37.17705851,2.127590156,0,0,0,0,0,0,0,0,9.762485,39.30464867
ppg3_1,19-08-2018,2018,8,33,10.99036818,2.127590156,0,0,0,0,0,0,0,0,9.177515,13.11795833
ppg3_1,26-08-2018,2018,8,34,29.40458509,2.127590156,-0.784433482,0,0,12.91237559,0,0,0,0,48.24505,43.66011735
ppg3_1,02-09-2018,2018,9,35,9.824784909,2.127590156,0,-0.358029488,0,0,0,0,0,0,16.21991,11.59434558
ppg3_1,09-09-2018,2018,9,36,21.50682688,2.127590156,-0.784433482,0,0,0,5.320981117,0,0,0,42.981625,28.17096467
ppg3_1,16-09-2018,2018,9,37,19.35955528,2.127590156,0,-0.358029488,0,0,0,0,0,0,14.142825,21.12911594
ppg3_1,23-09-2018,2018,9,38,15.77939746,2.127590156,-0.784433482,0,0,12.91237559,0,0,0,0,21.776665,30.03492972
ppg3_1,30-09-2018,2018,9,39,11.31516423,2.127590156,0,0,0,0,0,0,0,0,9.11887,13.44275439
ppg3_1,07-10-2018,2018,10,40,21.07796521,2.127590156,-0.784433482,0,14.93358682,0,0,0,0,0,41.332845,37.3547087
ppg3_1,14-10-2018,2018,10,41,29.12982656,2.127590156,0,-0.358029488,0,0,0,3.561800189,0,0,18.43033,34.46118742
ppg3_1,21-10-2018,2018,10,42,11.71150921,2.127590156,-0.784433482,0,14.93358682,0,0,0,-2.009513468,0,19.802275,25.97873924
ppg3_1,28-10-2018,2018,10,43,13.73140641,2.127590156,-0.784433482,0,0,0,0,0,-2.009513468,0,15.619175,13.06504961
ppg3_1,04-11-2018,2018,11,44,11.37401087,2.127590156,0,0,0,0,0,0,-2.009513468,0,8.094355,11.49208756
ppg3_1,11-11-2018,2018,11,45,13.26110923,2.127590156,-0.784433482,0,14.93358682,0,0,0,0,0,19.207465,29.53785272
ppg3_1,18-11-2018,2018,11,46,5.407877883,2.127590156,0,0,0,0,0,0,0,0,6.233645,7.535468039
ppg3_1,25-11-2018,2018,11,47,11.72351073,2.127590156,0,-0.358029488,0,0,0,0,0,0,13.838285,13.4930714
ppg3_1,02-12-2018,2018,12,48,6.022708868,2.127590156,-0.784433482,0,0,0,0,0,0,0,7.202735,7.365865543
ppg3_1,09-12-2018,2018,12,49,16.27554854,2.127590156,-0.784433482,0,14.93358682,0,0,0,0,0,22.73448,32.55229203
ppg3_1,16-12-2018,2018,12,50,12.36513537,2.127590156,0,-0.358029488,0,0,0,3.561800189,0,0,18.62457,17.69649623
ppg3_1,23-12-2018,2018,12,51,19.72155234,2.127590156,0,-0.358029488,0,0,0,0,0,0,22.48567,21.491113
ppg3_1,30-12-2018,2018,12,52,6.985119175,2.127590156,0,-0.358029488,0,0,0,0,0,0,8.8405,8.754679843
ppg3_1,06-01-2019,2019,1,1,4.376698852,2.127590156,0,0,0,0,0,0,0,0,5.587045,6.504289009
ppg3_1,13-01-2019,2019,1,2,4.25766436,2.127590156,0,0,0,0,0,0,0,1.888536571,5.16473,8.273791087
ppg3_1,20-01-2019,2019,1,3,4.41558964,2.127590156,0,0,0,0,5.320981117,0,0,0,5.279695,11.86416091
ppg3_1,27-01-2019,2019,1,4,7.001863127,2.127590156,0,-0.358029488,0,0,0,0,0,0,11.216375,8.771423795
ppg3_1,03-02-2019,2019,2,5,6.34698355,2.127590156,0,0,0,0,0,0,0,0,5.174865,8.474573706
ppg3_1,10-02-2019,2019,2,6,10.00726829,2.127590156,-0.784433482,0,0,0,0,0,0,0,12.12442,11.35042496
ppg3_1,17-02-2019,2019,2,7,4.597856867,2.127590156,0,0,0,0,0,0,0,0,5.584735,6.725447023
ppg3_1,24-02-2019,2019,2,8,8.700283144,2.127590156,-0.784433482,0,0,0,0,3.561800189,0,0,15.75566,13.60524001
ppg3_1,03-03-2019,2019,3,9,4.387816022,2.127590156,0,0,0,0,0,0,0,0,4.935225,6.515406178
ppg3_1,10-03-2019,2019,3,10,9.978526399,2.127590156,-0.784433482,0,0,0,0,3.561800189,0,0,17.725835,14.88348326
ppg3_1,17-03-2019,2019,3,11,5.321781175,2.127590156,0,0,0,0,0,0,0,0,5.75146,7.449371331
ppg3_1,24-03-2019,2019,3,12,10.73535253,2.127590156,0,-0.358029488,0,0,0,0,-2.009513468,0,16.8809,10.49539973
ppg3_1,31-03-2019,2019,3,13,6.055680983,2.127590156,0,0,0,0,0,0,-2.009513468,0,5.942225,6.173757671
ppg3_1,07-04-2019,2019,4,14,11.23382066,2.127590156,0,0,0,0,0,0,-2.009513468,0,6.831125,11.35189735
ppg3_1,14-04-2019,2019,4,15,23.15165966,2.127590156,-0.784433482,0,0,12.91237559,0,0,-2.009513468,0,23.35238,35.39767845
ppg3_1,21-04-2019,2019,4,16,7.703233285,2.127590156,0,0,0,0,0,0,0,0,9.000585,9.830823441
ppg3_1,28-04-2019,2019,4,17,11.25405131,2.127590156,0,-0.358029488,0,0,0,0,0,0,17.82032,13.02361198
ppg3_1,05-05-2019,2019,5,18,14.89795813,2.127590156,0,0,0,0,0,0,0,0,7.32016,17.02554829
ppg3_1,12-05-2019,2019,5,19,26.77472414,2.127590156,-0.784433482,0,0,12.91237559,0,0,0,0,54.203345,41.0302564
ppg3_1,19-05-2019,2019,5,20,34.45558277,2.127590156,0,-0.358029488,0,12.91237559,0,0,0,0,17.98788,49.13751902
ppg3_1,26-05-2019,2019,5,21,10.88899333,2.127590156,0,0,0,0,0,0,0,0,7.959095,13.01658349
ppg3_1,02-06-2019,2019,6,22,17.46753805,2.127590156,0,-0.358029488,0,0,0,3.561800189,0,0,24.078935,22.7988989
ppg3_1,09-06-2019,2019,6,23,34.20968822,2.127590156,-0.784433482,0,14.93358682,0,0,0,-2.009513468,0,69.99503,48.47691824
ppg3_1,16-06-2019,2019,6,24,17.31347218,2.127590156,-0.784433482,0,0,0,0,3.561800189,0,0,24.031145,22.21842904
ppg3_1,23-06-2019,2019,6,25,7.428994793,2.127590156,0,0,0,0,0,0,-2.009513468,0,8.546155,7.547071481
ppg3_1,30-06-2019,2019,6,26,45.117349,2.127590156,-0.784433482,0,14.93358682,0,0,0,0,0,87.3584,61.3940925
ppg3_1,07-07-2019,2019,7,27,30.25560698,2.127590156,-0.784433482,0,0,0,5.320981117,0,0,0,50.679605,36.91974477
ppg3_1,14-07-2019,2019,7,28,14.32947281,2.127590156,0,-0.358029488,0,0,0,3.561800189,0,0,23.73267,19.66083367
ppg3_1,21-07-2019,2019,7,29,43.83248268,2.127590156,0,0,0,0,0,0,-2.009513468,0,8.29291,43.95055937
ppg3_1,28-07-2019,2019,7,30,22.67181677,2.127590156,-0.784433482,0,0,0,0,0,-2.009513468,1.888536571,26.687815,23.89399654
ppg3_1,04-08-2019,2019,8,31,25.1031913,2.127590156,0,-0.358029488,0,0,0,3.561800189,0,0,18.502135,30.43455216
ppg3_1,11-08-2019,2019,8,32,37.17705851,2.127590156,-0.784433482,0,14.93358682,0,0,0,0,0,65.25059,53.45380201
ppg3_1,18-08-2019,2019,8,33,10.99036818,2.127590156,0,-0.358029488,0,0,0,3.561800189,0,0,18.746395,16.32172903
ppg3_1,25-08-2019,2019,8,34,29.40458509,2.127590156,0,0,0,0,0,0,0,0,7.463735,31.53217524
ppg3_1,01-09-2019,2019,9,35,9.824784909,2.127590156,0,0,0,0,0,0,0,0,8.276975,11.95237507
ppg3_1,08-09-2019,2019,9,36,21.50682688,2.127590156,0,0,0,0,0,0,0,1.888536571,7.132525,25.52295361
ppg3_1,15-09-2019,2019,9,37,19.35955528,2.127590156,-0.784433482,0,14.93358682,0,0,0,0,0,47.399355,35.63629877
ppg3_1,22-09-2019,2019,9,38,15.77939746,2.127590156,-0.784433482,0,14.93358682,0,0,0,0,0,25.619585,32.05614096
ppg3_1,29-09-2019,2019,9,39,11.31516423,2.127590156,0,0,0,0,0,0,0,0,21.56996,13.44275439
ppg3_1,06-10-2019,2019,10,40,21.07796521,2.127590156,0,0,0,0,0,0,0,0,8.218165,23.20555537
ppg3_1,13-10-2019,2019,10,41,29.12982656,2.127590156,-0.784433482,0,14.93358682,0,0,0,0,0,51.1588,45.40657005
ppg3_1,20-10-2019,2019,10,42,11.71150921,2.127590156,0,0,0,0,0,0,0,1.888536571,7.820365,15.72763594
ppg3_1,27-10-2019,2019,10,43,13.73140641,2.127590156,-0.784433482,0,0,0,0,0,0,1.888536571,16.98545,16.96309965
ppg3_1,03-11-2019,2019,11,44,11.37401087,2.127590156,-0.784433482,0,0,0,0,3.561800189,0,1.888536571,19.051615,18.1675043
ppg3_1,10-11-2019,2019,11,45,13.26110923,2.127590156,0,-0.358029488,0,0,0,0,0,0,12.16223,15.0306699
ppg3_1,17-11-2019,2019,11,46,5.407877883,2.127590156,0,0,0,0,0,0,0,0,6.604765,7.535468039
ppg3_1,24-11-2019,2019,11,47,11.72351073,2.127590156,0,-0.358029488,0,0,0,0,0,0,13.984255,13.4930714
ppg3_1,01-12-2019,2019,12,48,6.022708868,2.127590156,0,0,0,0,0,0,0,0,7.08783,8.150299024
ppg3_1,08-12-2019,2019,12,49,16.27554854,2.127590156,0,-0.358029488,0,0,0,0,0,0,15.790055,18.0451092
ppg3_1,15-12-2019,2019,12,50,12.36513537,2.127590156,0,0,0,0,0,0,0,0,10.605165,14.49272553
ppg3_1,22-12-2019,2019,12,51,19.72155234,2.127590156,0,-0.358029488,0,0,0,3.561800189,0,0,24.34078,25.05291319
ppg3_1,29-12-2019,2019,12,52,6.985119175,2.127590156,0,-0.358029488,0,0,0,0,0,0,7.719695,8.754679843
ppg3_1,05-01-2020,2020,1,1,4.376698852,2.127590156,0,-0.358029488,0,0,0,0,0,0,5.25442,6.146259521
ppg3_1,12-01-2020,2020,1,2,4.25766436,2.127590156,0,0,0,0,0,0,0,1.888536571,5.39862,8.273791087
ppg3_1,19-01-2020,2020,1,3,4.41558964,2.127590156,0,0,0,0,0,0,0,0,5.680215,6.543179796
ppg3_1,26-01-2020,2020,1,4,7.001863127,2.127590156,0,0,0,0,0,0,0,0,5.98676,9.129453283
ppg3_1,02-02-2020,2020,2,5,6.34698355,2.127590156,0,-0.358029488,0,0,0,3.561800189,-2.009513468,0,10.72846,9.668830939
ppg3_1,09-02-2020,2020,2,6,10.00726829,2.127590156,0,-0.358029488,0,0,0,3.561800189,0,0,12.70473,15.33862915
ppg3_1,16-02-2020,2020,2,7,4.597856867,2.127590156,0,0,0,0,0,0,0,0,5.822185,6.725447023
ppg3_1,23-02-2020,2020,2,8,8.700283144,2.127590156,0,0,0,0,0,0,0,0,5.50776,10.8278733
ppg3_1,01-03-2020,2020,3,9,4.387816022,2.127590156,0,0,0,0,0,0,0,0,5.975025,6.515406178
ppg3_1,08-03-2020,2020,3,10,9.978526399,2.127590156,0,0,0,0,0,0,0,0,6.682945,12.10611655
ppg3_1,15-03-2020,2020,3,11,5.321781175,2.127590156,0,0,0,0,0,0,0,0,7.49559,7.449371331
ppg3_1,22-03-2020,2020,3,12,10.73535253,2.127590156,0,-0.358029488,0,0,0,0,-2.009513468,0,9.514765,10.49539973
ppg3_1,29-03-2020,2020,3,13,6.055680983,2.127590156,0,0,0,0,0,0,-2.009513468,0,9.168965,6.173757671
ppg3_1,05-04-2020,2020,4,14,11.23382066,2.127590156,0,-0.358029488,14.93358682,0,0,0,0,0,21.46109,27.93696815
ppg3_1,12-04-2020,2020,4,15,23.15165966,2.127590156,-0.784433482,0,14.93358682,0,0,0,0,0,34.38038,39.42840315
ppg3_1,19-04-2020,2020,4,16,7.703233285,2.127590156,0,0,0,0,0,0,0,0,10.13258,9.830823441
ppg3_1,26-04-2020,2020,4,17,11.25405131,2.127590156,0,0,0,0,0,0,0,0,9.843035,13.38164147
ppg3_1,03-05-2020,2020,5,18,14.89795813,2.127590156,-0.784433482,0,0,0,5.320981117,0,0,0,30.307835,21.56209592
ppg3_1,10-05-2020,2020,5,19,26.77472414,2.127590156,0,0,0,0,0,0,0,0,10.87986,28.9023143
ppg3_1,17-05-2020,2020,5,20,34.45558277,2.127590156,-0.784433482,0,14.93358682,0,0,0,0,0,68.971575,50.73232626
ppg3_1,24-05-2020,2020,5,21,10.88899333,2.127590156,0,-0.358029488,0,0,0,0,0,0,19.381835,12.658554
ppg3_1,31-05-2020,2020,5,22,17.46753805,2.127590156,0,-0.358029488,0,0,0,0,0,0,19.07939,19.23709872
ppg3_1,07-06-2020,2020,6,23,34.20968822,2.127590156,0,0,0,0,0,0,0,0,13.115025,36.33727837
ppg3_1,14-06-2020,2020,6,24,17.31347218,2.127590156,0,-0.358029488,0,0,0,0,0,0,18.736325,19.08303285
ppg3_1,21-06-2020,2020,6,25,7.428994793,2.127590156,0,0,0,0,0,0,0,0,9.91416,9.556584949
ppg3_1,28-06-2020,2020,6,26,45.117349,2.127590156,0,-0.358029488,0,0,0,0,0,0,22.557885,46.88690967
ppg3_1,05-07-2020,2020,7,27,30.25560698,2.127590156,0,-0.358029488,0,0,0,0,0,0,23.51947,32.02516765
ppg3_1,12-07-2020,2020,7,28,14.32947281,2.127590156,0,0,0,0,0,0,0,0,11.42575,16.45706297
ppg3_1,19-07-2020,2020,7,29,43.83248268,2.127590156,-0.784433482,0,14.93358682,0,0,0,0,0,103.23568,60.10922617
ppg3_1,26-07-2020,2020,7,30,22.67181677,2.127590156,-0.784433482,0,0,0,0,0,0,0,29.61183,24.01497344
ppg3_1,02-08-2020,2020,8,31,25.1031913,2.127590156,-0.784433482,0,0,0,0,3.561800189,0,0,54.66569,30.00814816
ppg3_1,09-08-2020,2020,8,32,37.17705851,2.127590156,-0.784433482,0,14.93358682,0,0,0,0,0,62.5889448,53.45380201
ppg3_1,16-08-2020,2020,8,33,10.99036818,2.127590156,0,0,0,0,0,0,0,0,12.20674,13.11795833
ppg3_1,23-08-2020,2020,8,34,29.40458509,2.127590156,-0.784433482,0,0,12.91237559,0,0,0,0,52.11563,43.66011735
ppg3_1,30-08-2020,2020,8,35,9.824784909,2.127590156,0,-0.358029488,0,0,0,0,0,0,11.162465,11.59434558
ppg3_1,06-09-2020,2020,9,36,21.50682688,2.127590156,-0.784433482,0,14.93358682,0,0,0,0,0,27.935295,37.78357037
ppg3_1,13-09-2020,2020,9,37,19.35955528,2.127590156,0,0,0,0,0,0,-2.009513468,0,8.444545,19.47763196
ppg3_1,20-09-2020,2020,9,38,15.77939746,2.127590156,0,0,0,0,0,0,0,0,9.506995,17.90698762
ppg3_1,27-09-2020,2020,9,39,11.31516423,2.127590156,0,-0.358029488,0,0,0,0,0,0,10.51771,13.0847249
