PPG,Date,Year,Month,Week,Seasonal_index,const,promo_catalogue,promo_ins,display_platinum,display_gold,display_silver,display_bronze,Retailer 0_Promo.Group 22_Wtd.Selling.Dist,Retailer 0_Promo.Group 22_promo_ins,Retailer 0_Promo.Group 19_display_bronze,Retailer 0_Promo.Group 22_display_bronze,Vol.Sales,Vol.Sales_pred
ppg5_0,05-08-2018,2018,8,31,20.93165226,0.851925843,0,5.235899381,0,0,0,0,0,0,0,0,23.34048,27.01947748
ppg5_0,12-08-2018,2018,8,32,18.53208517,0.851925843,0,5.235899381,0,0,0,0,0,0,0,0,27.98976,24.6199104
ppg5_0,19-08-2018,2018,8,33,14.57939753,0.851925843,0,5.235899381,0,0,0,0,-0.069850632,0,0,0,20.90652,20.59737212
ppg5_0,26-08-2018,2018,8,34,16.96029893,0.851925843,0,5.235899381,0,0,0,0,-0.719998827,1.821950449,0,0,24.15104,24.15007577
ppg5_0,02-09-2018,2018,9,35,17.83664277,0.851925843,0,5.235899381,0,0,0,0,-1.316415765,1.821950449,0,0,22.60668,24.43000268
ppg5_0,09-09-2018,2018,9,36,16.69225677,0.851925843,0,5.235899381,0,0,0,0,-2.041787717,1.821950449,0,0,20.56632,22.56024473
ppg5_0,16-09-2018,2018,9,37,12.62788375,0.851925843,0,5.235899381,0,0,0,0,-2.525369019,1.821950449,0,0,14.88352,18.0122904
ppg5_0,23-09-2018,2018,9,38,17.87717857,0.851925843,0,5.235899381,0,0,0,0,-2.576413712,1.821950449,0,0,26.32564,23.21054053
ppg5_0,30-09-2018,2018,9,39,17.53210678,0.851925843,0,5.235899381,0,0,0,0,-2.608652465,1.821950449,0,0,23.71532,22.83322999
ppg5_0,07-10-2018,2018,10,40,15.18364472,0.851925843,0,5.235899381,0,0,0,0,-2.65163747,1.821950449,0,0,20.18584,20.44178292
ppg5_0,14-10-2018,2018,10,41,18.51300965,0.851925843,0,5.235899381,0,0,0,0,-2.659697158,1.821950449,0,0,19.12092,23.76308816
ppg5_0,21-10-2018,2018,10,42,15.33277778,0.851925843,0,5.235899381,0,0,0,0,-2.659697158,1.821950449,0,0,19.33284,20.5828563
ppg5_0,28-10-2018,2018,10,43,15.8570986,0.851925843,0,5.235899381,0,0,0,0,-2.659697158,1.821950449,0,0,18.95448,21.10717711
ppg5_0,04-11-2018,2018,11,44,18.76818729,0.851925843,0,5.235899381,0,0,0,0,-2.657010595,1.821950449,0,0,22.01072,24.02095236
ppg5_0,11-11-2018,2018,11,45,13.8822509,0.851925843,0,5.235899381,0,0,0,0,-2.657010595,1.821950449,0,0,18.51484,19.13501598
ppg5_0,18-11-2018,2018,11,46,14.68609767,0.851925843,0,5.235899381,0,0,0,0,-2.657010595,1.821950449,0,0,19.09712,19.93886275
ppg5_0,25-11-2018,2018,11,47,12.01303658,0.851925843,0,5.235899381,0,0,0,0,-2.654324032,1.821950449,0,0,16.84232,17.26848822
ppg5_0,02-12-2018,2018,12,48,13.73060447,0.851925843,0,5.235899381,0,0,0,0,-2.643577781,1.821950449,0,0,19.274,18.99680236
ppg5_0,09-12-2018,2018,12,49,18.20267971,0.851925843,0,5.235899381,0,0,0,0,-2.622085279,1.821950449,0,0,25.829,23.4903701
ppg5_0,16-12-2018,2018,12,50,19.9863402,0.851925843,0,5.235899381,0,0,0,0,-2.603279339,1.821950449,0,0,26.90472,25.29283653
ppg5_0,23-12-2018,2018,12,51,28.26704372,0.851925843,0,5.235899381,0,0,0,0,-2.573727149,1.821950449,0,0,43.0758,33.60309224
ppg5_0,30-12-2018,2018,12,52,14.66366921,0.851925843,0,5.235899381,0,0,0,0,-2.568354023,1.821950449,0,0,21.45168,20.00509086
ppg5_0,06-01-2019,2019,1,1,12.11744734,0.851925843,0,0,0,0,0,0,-2.562980898,0,0,0,11.05388,10.40639229
ppg5_0,13-01-2019,2019,1,2,12.5018394,0.851925843,0,0,0,0,0,0,-2.554921209,0,0,0,14.8684,10.79884403
ppg5_0,20-01-2019,2019,1,3,16.64677556,0.851925843,0,0,0,0,0,0,-2.571040586,0,0,0,18.61832,14.92766082
ppg5_0,27-01-2019,2019,1,4,15.06963725,0.851925843,0,0,0,0,0,0,-2.568354023,0,0,0,16.53748,13.35320907
ppg5_0,03-02-2019,2019,2,5,14.96952685,0.851925843,0,0,0,0,0,0,-2.56566746,0,0,0,16.78932,13.25578523
ppg5_0,10-02-2019,2019,2,6,11.11450127,0.851925843,0,0,0,0,0,0,-2.552234646,0,0,0,11.76236,9.414192469
ppg5_0,17-02-2019,2019,2,7,16.0652435,0.851925843,0,0,0,0,0,0,-2.53611527,0,0,0,18.54208,14.38105408
ppg5_0,24-02-2019,2019,2,8,15.97871617,0.851925843,0,0,0,0,0,0,-2.541488395,0,0,0,17.46516,14.28915362
ppg5_0,03-03-2019,2019,3,9,21.51039302,0.851925843,0,0,0,0,0,0,-2.546861521,0,0,0,22.27668,19.81545735
ppg5_0,10-03-2019,2019,3,10,15.80295065,0.851925843,0,0,0,0,0,0,-2.549548084,0,0,0,17.57592,14.1053284
ppg5_0,17-03-2019,2019,3,11,16.67200221,0.851925843,0,0,0,0,0,0,-2.552234646,0,0,0,17.13452,14.97169341
ppg5_0,24-03-2019,2019,3,12,15.54717735,0.851925843,0,0,0,0,0,0,-2.546861521,0,0,0,16.58332,13.85224167
ppg5_0,31-03-2019,2019,3,13,13.02013015,0.851925843,0,0,0,0,0,0,-2.533428707,0,0,0,12.34432,11.33862728
ppg5_0,07-04-2019,2019,4,14,12.69054626,0.851925843,0,0,0,0,0,0,-2.538801833,0,0,0,11.5776,11.00367027
ppg5_0,14-04-2019,2019,4,15,16.07419186,0.851925843,0,0,0,0,0,0,-2.549548084,0,0,0,15.53492,14.37656962
ppg5_0,21-04-2019,2019,4,16,18.40809491,0.851925843,0,0,0,0,0,0,-2.546861521,0,0,0,10.33632,16.71315923
ppg5_0,28-04-2019,2019,4,17,15.15947555,0.851925843,0,0,0,0,0,0,-2.538801833,0,0,0,7.8676,13.47259956
ppg5_0,05-05-2019,2019,5,18,17.00013377,0.851925843,0,0,0,0,0,0,-2.546861521,0,0,0,9.2128,15.30519809
ppg5_0,12-05-2019,2019,5,19,16.29020647,0.851925843,0,0,0,0,0,0,-2.549548084,0,0,0,8.40892,14.59258423
ppg5_0,19-05-2019,2019,5,20,21.05622363,0.851925843,0,0,0,0,0,0,-2.554921209,0,0,0,10.92884,19.35322827
ppg5_0,26-05-2019,2019,5,21,17.74672679,0.851925843,0,0,0,0,0,0,-2.549548084,0,0,0,14.12996,16.04910455
ppg5_0,02-06-2019,2019,6,22,14.64020118,0.851925843,0,0,0,0,0,0,-2.552234646,0,0,0,10.43696,12.93989237
ppg5_0,09-06-2019,2019,6,23,11.88277779,0.851925843,0,0,0,0,0,0,-2.552234646,0,0,0,8.01372,10.18246898
ppg5_0,16-06-2019,2019,6,24,15.21882614,0.851925843,0,5.235899381,0,0,0,-6.953588766,-2.554921209,0,0,0,12.2044,11.79814139
ppg5_0,23-06-2019,2019,6,25,22.98099237,0.851925843,5.953189859,0,0,0,0,-6.953588766,-2.557607772,0,0,2.617568466,22.89248,22.89248
ppg5_0,30-06-2019,2019,6,26,17.64302043,0.851925843,0,0,0,0,0,0,-2.557607772,0,0,0,18.3014,15.9373385
ppg5_0,07-07-2019,2019,7,27,14.61876035,0.851925843,0,0,0,0,0,0,-2.557607772,0,0,0,13.754,12.91307843
ppg5_0,14-07-2019,2019,7,28,13.88717151,0.851925843,0,0,0,0,0,0,-2.560294335,0,0,0,13.34632,12.17880302
ppg5_0,21-07-2019,2019,7,29,11.57579909,0.851925843,0,0,0,0,0,0,-2.568354023,0,0,0,10.79416,9.859370906
ppg5_0,28-07-2019,2019,7,30,15.00754215,0.851925843,0,0,0,0,0,0,-2.568354023,0,0,0,14.09876,13.29111397
ppg5_0,04-08-2019,2019,8,31,20.93165226,0.851925843,5.953189859,0,0,0,0,-6.953588766,-2.571040586,0,3.335621393,0,21.54776,21.54776
ppg5_0,11-08-2019,2019,8,32,18.53208517,0.851925843,0,0,0,0,0,0,-2.571040586,0,0,0,16.48868,16.81297043
ppg5_0,18-08-2019,2019,8,33,14.57939753,0.851925843,0,0,0,0,0,0,-2.571040586,0,0,0,12.43132,12.86028279
ppg5_0,25-08-2019,2019,8,34,16.96029893,0.851925843,0,0,0,0,0,0,-2.56566746,0,0,0,16.34192,15.24655731
ppg5_0,01-09-2019,2019,9,35,17.83664277,0.851925843,0,0,0,0,0,0,-2.562980898,0,0,0,15.75534,16.12558772
ppg5_0,08-09-2019,2019,9,36,16.69225677,0.851925843,0,0,0,0,0,0,-2.562980898,0,0,0,15.49242,14.98120172
ppg5_0,15-09-2019,2019,9,37,12.62788375,0.851925843,0,0,0,0,0,0,-2.568354023,0,0,0,11.27078,10.91145557
ppg5_0,22-09-2019,2019,9,38,17.87717857,0.851925843,0,0,0,0,0,0,-2.568354023,0,0,0,14.5864,16.16075039
ppg5_0,29-09-2019,2019,9,39,17.53210678,0.851925843,0,0,0,0,0,0,-2.573727149,0,0,0,15.81612,15.81030547
ppg5_0,06-10-2019,2019,10,40,15.18364472,0.851925843,0,0,0,0,0,0,-2.579100274,0,0,0,14.41104,13.45647028
ppg5_0,13-10-2019,2019,10,41,18.51300965,0.851925843,0,0,0,0,0,0,-2.581786837,0,0,0,21.19128,16.78314866
ppg5_0,20-10-2019,2019,10,42,15.33277778,0.851925843,0,0,0,0,0,0,-2.587159963,0,0,0,15.24568,13.59754366
ppg5_0,27-10-2019,2019,10,43,15.8570986,0.851925843,0,0,0,0,0,0,-2.589846525,0,0,0,16.45234,14.11917792
ppg5_0,03-11-2019,2019,11,44,18.76818729,0.851925843,0,0,0,0,0,0,-2.592533088,0,0,0,19.7519,17.02758004
ppg5_0,10-11-2019,2019,11,45,13.8822509,0.851925843,0,0,0,0,0,0,-2.589846525,0,0,0,13.13688,12.14433022
ppg5_0,17-11-2019,2019,11,46,14.68609767,0.851925843,0,0,0,0,0,0,-2.589846525,0,0,0,14.2205,12.94817699
ppg5_0,24-11-2019,2019,11,47,12.01303658,0.851925843,0,0,0,0,0,0,-2.587159963,0,0,0,10.8271,10.27780246
ppg5_0,01-12-2019,2019,12,48,13.73060447,0.851925843,0,0,0,0,0,0,-2.5844734,0,0,0,12.35952,11.99805692
ppg5_0,08-12-2019,2019,12,49,18.20267971,0.851925843,0,0,0,0,0,0,-2.581786837,0,0,0,16.20212,16.47281871
ppg5_0,15-12-2019,2019,12,50,19.9863402,0.851925843,0,0,0,0,0,0,-2.576413712,0,0,0,18.74918,18.26185233
ppg5_0,22-12-2019,2019,12,51,28.26704372,0.851925843,0,0,0,0,0,0,-2.581786837,0,0,0,23.20502,26.53718273
ppg5_0,29-12-2019,2019,12,52,14.66366921,0.851925843,0,0,0,0,0,0,-2.56566746,0,0,0,12.6272,12.94992759
ppg5_0,05-01-2020,2020,1,1,12.11744734,0.851925843,0,0,0,0,0,0,-2.568354023,0,0,0,11.431,10.40101916
ppg5_0,12-01-2020,2020,1,2,12.5018394,0.851925843,0,0,0,0,0,0,-2.571040586,0,0,0,8.21612,10.78272465
ppg5_0,19-01-2020,2020,1,3,16.64677556,0.851925843,0,0,0,0,0,0,-2.571040586,0,0,0,12.15848,14.92766082
ppg5_0,26-01-2020,2020,1,4,15.06963725,0.851925843,0,0,0,0,0,0,-2.56566746,0,0,0,11.33388,13.35589563
ppg5_0,02-02-2020,2020,2,5,14.96952685,0.851925843,0,0,0,0,0,0,-2.562980898,0,0,0,10.88502,13.25847179
ppg5_0,09-02-2020,2020,2,6,11.11450127,0.851925843,0,0,0,0,0,0,-2.571040586,0,0,0,8.80822,9.39538653
ppg5_0,16-02-2020,2020,2,7,16.0652435,0.851925843,0,0,0,0,0,0,-2.562980898,0,0,0,11.14074,14.35418845
ppg5_0,23-02-2020,2020,2,8,15.97871617,0.851925843,0,0,0,0,0,0,-2.56566746,0,0,0,12.08984,14.26497455
ppg5_0,01-03-2020,2020,3,9,21.51039302,0.851925843,0,0,0,0,0,0,-2.56566746,0,0,0,17.55048,19.79665141
ppg5_0,08-03-2020,2020,3,10,15.80295065,0.851925843,0,0,0,0,0,0,-2.568354023,0,0,0,11.64404,14.08652247
ppg5_0,15-03-2020,2020,3,11,16.67200221,0.851925843,0,0,0,0,0,0,-2.56566746,0,0,0,13.73852,14.95826059
ppg5_0,22-03-2020,2020,3,12,15.54717735,0.851925843,0,0,0,0,0,0,-2.562980898,0,0,0,12.18694,13.83612229
ppg5_0,29-03-2020,2020,3,13,13.02013015,0.851925843,0,0,0,0,0,0,-2.554921209,0,0,0,11.80024,11.31713478
ppg5_0,05-04-2020,2020,4,14,12.69054626,0.851925843,0,0,0,0,0,0,-2.533428707,0,0,0,11.97068,11.0090434
ppg5_0,12-04-2020,2020,4,15,16.07419186,0.851925843,0,0,0,0,0,0,-1.853728322,0,0,0,14.26342,15.07238938
ppg5_0,19-04-2020,2020,4,16,18.40809491,0.851925843,0,0,0,0,0,0,-0.961789477,0,0,0,24.03314,18.29823127
ppg5_0,26-04-2020,2020,4,17,15.15947555,0.851925843,0,0,0,0,0,0,-0.357312851,0,0,0,20.45756,15.65408854
ppg5_0,03-05-2020,2020,5,18,17.00013377,0.851925843,0,0,0,0,0,0,-0.161193767,0,0,0,22.5388,17.69086585
ppg5_0,10-05-2020,2020,5,19,16.29020647,0.851925843,0,0,0,0,0,0,-0.091343135,0,0,0,22.03048,17.05078918
ppg5_0,17-05-2020,2020,5,20,21.05622363,0.851925843,0,0,0,0,0,0,-0.077910321,0,0,0,28.41424,21.83023916
ppg5_0,24-05-2020,2020,5,21,17.74672679,0.851925843,0,0,0,0,0,0,-0.04835813,0,0,0,18.86804,18.5502945
ppg5_0,31-05-2020,2020,5,22,14.64020118,0.851925843,0,0,0,0,0,0,-0.053731256,0,0,0,16.82482,15.43839576
ppg5_0,07-06-2020,2020,6,23,11.88277779,0.851925843,0,0,0,0,0,0,-0.053731256,0,0,0,14.12842,12.68097237
ppg5_0,14-06-2020,2020,6,24,15.21882614,0.851925843,0,0,0,0,0,0,-0.037611879,0,0,0,16.0904,16.03314011
ppg5_0,21-06-2020,2020,6,25,22.98099237,0.851925843,0,0,0,0,0,0,-0.032238753,0,0,0,19.6873,23.80067946
ppg5_0,28-06-2020,2020,6,26,17.64302043,0.851925843,0,0,0,0,0,0,-0.010746251,0,0,0,14.36422,18.48420002
ppg5_0,05-07-2020,2020,7,27,14.61876035,0.851925843,0,0,0,0,0,0,-0.002686563,0,0,0,13.35854,15.46799963
ppg5_0,12-07-2020,2020,7,28,13.88717151,0.851925843,0,0,0,0,0,0,0,0,0,0,12.40018,14.73909735
ppg5_0,19-07-2020,2020,7,29,11.57579909,0.851925843,0,0,0,0,0,0,0,0,0,0,10.67796,12.42772493
ppg5_0,26-07-2020,2020,7,30,15.00754215,0.851925843,0,5.235899381,0,0,0,-6.953588766,0,0,0,0,13.73552,14.14177861
ppg5_0,02-08-2020,2020,8,31,20.93165226,0.851925843,0,0,0,0,0,0,-0.002686563,0,0,0,21.05234,21.78089154
ppg5_0,09-08-2020,2020,8,32,18.53208517,0.851925843,0,0,0,0,0,0,-0.002686563,0,0,0,16.32498,19.38132445
ppg5_0,16-08-2020,2020,8,33,14.57939753,0.851925843,0,0,0,0,0,0,-0.002686563,0,0,0,14.15938,15.42863681
ppg5_0,23-08-2020,2020,8,34,16.96029893,0.851925843,0,0,0,0,0,0,-0.002686563,0,0,0,14.64502,17.80953821
ppg5_0,30-08-2020,2020,8,35,17.83664277,0.851925843,0,0,0,0,0,0,-0.002686563,0,0,0,18.78096,18.68588205
ppg5_0,06-09-2020,2020,9,36,16.69225677,0.851925843,0,0,0,0,0,0,-0.005373126,0,0,0,17.20522,17.53880949
ppg5_0,13-09-2020,2020,9,37,12.62788375,0.851925843,0,0,0,0,0,0,-0.005373126,0,0,0,13.93982,13.47443647
ppg5_0,20-09-2020,2020,9,38,17.87717857,0.851925843,0,0,0,0,0,0,-0.005373126,0,0,0,17.57056,18.72373129
ppg5_0,27-09-2020,2020,9,39,17.53210678,0.851925843,0,0,0,0,0,0,-0.002686563,0,0,0,17.10198,18.38134606
