PPG,Date,Year,Month,Week,Seasonal_index,const,promo_catalogue,promo_ins,display_platinum,display_gold,display_silver,display_bronze,Retailer 0_Promo.Group 22_promo_ins,Retailer 1_Promo.Group 3_display_bronze,Vol.Sales,Vol.Sales_pred
ppg6_0,05-08-2018,2018,8,31,36.91646278,5.368911407,14.78448795,0,0,0,-1.359579326,0,0,0,55.69276,55.71028282
ppg6_0,12-08-2018,2018,8,32,10.49918528,5.368911407,0,0,0,0,0,0,0,0,15.88608,15.86809668
ppg6_0,19-08-2018,2018,8,33,16.37777307,5.368911407,0,0,0,0,0,0,0,0,13.2402,21.74668448
ppg6_0,26-08-2018,2018,8,34,9.211981642,5.368911407,0,0,0,0,0,0,0.712840769,0,14.11926,15.29373382
ppg6_0,02-09-2018,2018,9,35,39.93065372,5.368911407,14.78448795,0,0,0,-1.359579326,0,0.712840769,0,66.57092,59.43731452
ppg6_0,09-09-2018,2018,9,36,12.9590375,5.368911407,0,0,0,0,0,0,0.712840769,0,17.54664,19.04078967
ppg6_0,16-09-2018,2018,9,37,75.47729807,5.368911407,14.78448795,0,26.60608684,0,0,0,0.712840769,0,141.87044,122.949625
ppg6_0,23-09-2018,2018,9,38,18.48342554,5.368911407,0,0,0,0,0,0,0.712840769,0,21.29746,24.56517772
ppg6_0,30-09-2018,2018,9,39,13.8273853,5.368911407,0,0,0,0,0,0,0.712840769,0,19.14146,19.90913748
ppg6_0,07-10-2018,2018,10,40,38.47231135,5.368911407,14.78448795,0,0,0,0,0,0.712840769,0,59.74638,59.33855148
ppg6_0,14-10-2018,2018,10,41,9.698776365,5.368911407,0,0,0,0,0,0,0.712840769,-0.42028751,14.33896,15.36024103
ppg6_0,21-10-2018,2018,10,42,34.00206848,5.368911407,14.78448795,0,0,0,0,-4.033443768,0.712840769,0,55.82044,50.83486484
ppg6_0,28-10-2018,2018,10,43,31.00228636,5.368911407,14.78448795,0,0,0,0,-4.033443768,0.712840769,0,43.9622,47.83508272
ppg6_0,04-11-2018,2018,11,44,10.41798175,5.368911407,0,0,0,0,0,0,0.712840769,0,15.40216,16.49973392
ppg6_0,11-11-2018,2018,11,45,24.10789025,5.368911407,0,0,0,0,0,0,0.712840769,0,15.31746,30.18964242
ppg6_0,18-11-2018,2018,11,46,16.72362026,5.368911407,14.78448795,0,0,0,0,0,0.712840769,0,35.10956,37.58986039
ppg6_0,25-11-2018,2018,11,47,77.96944996,5.368911407,14.78448795,0,0,10.63273625,0,0,0.712840769,0,109.46068,109.4684263
ppg6_0,02-12-2018,2018,12,48,22.13402486,5.368911407,0,0,0,0,0,0,0.712840769,0,31.695,28.21577703
ppg6_0,09-12-2018,2018,12,49,15.13801212,5.368911407,0,0,0,0,0,0,0.712840769,0,12.50154,21.21976429
ppg6_0,16-12-2018,2018,12,50,30.93105587,5.368911407,14.78448795,0,0,0,-1.359579326,0,0.712840769,-0.42028751,51.79212,50.01742916
ppg6_0,23-12-2018,2018,12,51,19.05742313,5.368911407,0,8.302103672,0,0,0,0,0.712840769,0,36.82532,33.44127898
ppg6_0,30-12-2018,2018,12,52,12.37195331,5.368911407,0,8.302103672,0,0,0,0,0.712840769,0,25.44424,26.75580915
ppg6_0,06-01-2019,2019,1,1,44.02771625,5.368911407,14.78448795,0,26.60608684,0,0,0,0,0,101.70436,90.78720245
ppg6_0,13-01-2019,2019,1,2,44.76366462,5.368911407,0,0,0,0,0,0,0,0,22.70828,50.13257603
ppg6_0,20-01-2019,2019,1,3,23.05826089,5.368911407,14.78448795,0,0,0,-1.359579326,0,0,0,33.14964,41.85208093
ppg6_0,27-01-2019,2019,1,4,11.64486082,5.368911407,0,0,0,0,0,0,0,0,21.50244,17.01377222
ppg6_0,03-02-2019,2019,2,5,28.23772654,5.368911407,14.78448795,0,0,0,-1.359579326,0,0,0,39.82658,47.03154657
ppg6_0,10-02-2019,2019,2,6,63.91007474,5.368911407,14.78448795,0,26.60608684,0,0,0,0,0,84.52682,110.6695609
ppg6_0,17-02-2019,2019,2,7,20.33906691,5.368911407,0,8.302103672,0,0,0,-4.033443768,0,0,33.48384,29.97663822
ppg6_0,24-02-2019,2019,2,8,7.762939888,5.368911407,0,0,0,0,0,0,0,-0.42028751,10.8657,12.71156378
ppg6_0,03-03-2019,2019,3,9,33.71370772,5.368911407,14.78448795,0,0,0,0,-4.033443768,0,0,48.77118,49.83366331
ppg6_0,10-03-2019,2019,3,10,17.99628754,5.368911407,0,0,0,0,0,0,0,-0.42028751,25.22224,22.94491144
ppg6_0,17-03-2019,2019,3,11,33.29826747,5.368911407,14.78448795,0,0,0,-1.359579326,0,0,0,43.45298,52.0920875
ppg6_0,24-03-2019,2019,3,12,10.96708393,5.368911407,0,0,0,0,0,0,0,0,12.16048,16.33599533
ppg6_0,31-03-2019,2019,3,13,36.1393642,5.368911407,14.78448795,0,0,0,-1.359579326,0,0,0,50.89372,54.93318423
ppg6_0,07-04-2019,2019,4,14,27.86692188,5.368911407,0,8.302103672,0,0,0,-4.033443768,0,0,39.31574,37.5044932
ppg6_0,14-04-2019,2019,4,15,11.24943575,5.368911407,0,0,0,0,0,0,0,0,16.1736,16.61834716
ppg6_0,21-04-2019,2019,4,16,16.27385958,5.368911407,0,0,0,0,0,0,0,0,25.3114,21.64277099
ppg6_0,28-04-2019,2019,4,17,66.31513356,5.368911407,14.78448795,0,26.60608684,0,0,0,0,0,113.32996,113.0746198
ppg6_0,05-05-2019,2019,5,18,8.041219561,5.368911407,0,0,0,0,0,0,0,0,12.81612,13.41013097
ppg6_0,12-05-2019,2019,5,19,28.74199275,5.368911407,14.78448795,0,0,0,-1.359579326,0,0,0,48.30804,47.53581278
ppg6_0,19-05-2019,2019,5,20,8.161606552,5.368911407,0,0,0,0,0,0,0,0,13.48814,13.53051796
ppg6_0,26-05-2019,2019,5,21,31.51316723,5.368911407,14.78448795,0,0,0,-1.359579326,0,0,0,51.50566,50.30698727
ppg6_0,02-06-2019,2019,6,22,7.887953989,5.368911407,0,0,0,0,0,0,0,-0.42028751,13.0698,12.83657789
ppg6_0,09-06-2019,2019,6,23,69.36956545,5.368911407,14.78448795,0,26.60608684,0,0,0,0,0,114.11654,116.1290516
ppg6_0,16-06-2019,2019,6,24,17.87377324,5.368911407,0,0,0,0,0,0,0,-0.42028751,29.23756,22.82239713
ppg6_0,23-06-2019,2019,6,25,22.44843905,5.368911407,0,0,0,0,0,0,0,0,38.56838,27.81735045
ppg6_0,30-06-2019,2019,6,26,9.934731922,5.368911407,0,0,0,0,0,0,0,0,17.86636,15.30364333
ppg6_0,07-07-2019,2019,7,27,37.44399924,5.368911407,14.78448795,0,0,10.63273625,0,0,0,0,60.9966,68.23013484
ppg6_0,14-07-2019,2019,7,28,27.0004476,5.368911407,14.78448795,0,0,0,0,-4.033443768,0,-0.42028751,41.17692,42.70011569
ppg6_0,21-07-2019,2019,7,29,82.29478152,5.368911407,14.78448795,0,0,10.63273625,0,0,0,0,132.9701,113.0809171
ppg6_0,28-07-2019,2019,7,30,9.573896445,5.368911407,0,0,0,0,0,0,0,0,14.50988,14.94280785
ppg6_0,04-08-2019,2019,8,31,36.91646278,5.368911407,14.78448795,0,0,0,0,-4.033443768,0,-0.42028751,54.75952,52.61613087
ppg6_0,11-08-2019,2019,8,32,10.49918528,5.368911407,0,0,0,0,0,0,0,0,15.64628,15.86809668
ppg6_0,18-08-2019,2019,8,33,16.37777307,5.368911407,0,0,0,0,0,0,0,-0.42028751,27.75122,21.32639697
ppg6_0,25-08-2019,2019,8,34,9.211981642,5.368911407,0,0,0,0,0,0,0,0,13.81456,14.58089305
ppg6_0,01-09-2019,2019,9,35,39.93065372,5.368911407,14.78448795,0,0,0,-1.359579326,0,0,0,60.77078,58.72447375
ppg6_0,08-09-2019,2019,9,36,12.9590375,5.368911407,0,0,0,0,0,0,0,0,13.40602,18.3279489
ppg6_0,15-09-2019,2019,9,37,75.47729807,5.368911407,14.78448795,0,0,0,-1.359579326,0,0,0,97.10962,94.27111811
ppg6_0,22-09-2019,2019,9,38,18.48342554,5.368911407,0,0,0,0,0,0,0,0,30.65558,23.85233695
ppg6_0,29-09-2019,2019,9,39,13.8273853,5.368911407,0,0,0,0,0,0,0,0,14.40976,19.19629671
ppg6_0,06-10-2019,2019,10,40,38.47231135,5.368911407,14.78448795,0,0,0,0,-4.033443768,0,0,53.3819,54.59226694
ppg6_0,13-10-2019,2019,10,41,9.698776365,5.368911407,0,0,0,0,0,0,0,0,14.2069,15.06768777
ppg6_0,20-10-2019,2019,10,42,34.00206848,5.368911407,0,0,0,0,0,0,0,0,44.0525,39.37097988
ppg6_0,27-10-2019,2019,10,43,31.00228636,5.368911407,0,8.302103672,0,0,-1.359579326,0,0,0,47.3537,43.31372211
ppg6_0,03-11-2019,2019,11,44,10.41798175,5.368911407,0,0,0,0,0,0,0,-0.42028751,15.2605,15.36660564
ppg6_0,10-11-2019,2019,11,45,24.10789025,5.368911407,14.78448795,0,0,0,-1.359579326,0,0,0,56.38278,42.90171028
ppg6_0,17-11-2019,2019,11,46,16.72362026,5.368911407,0,0,0,0,0,0,0,0,13.73154,22.09253167
ppg6_0,24-11-2019,2019,11,47,77.96944996,5.368911407,14.78448795,0,26.60608684,0,0,0,0,0,120.23538,124.7289362
ppg6_0,01-12-2019,2019,12,48,22.13402486,5.368911407,0,0,0,0,0,0,0,0,33.48852,27.50293626
ppg6_0,08-12-2019,2019,12,49,15.13801212,5.368911407,0,8.302103672,0,0,0,-4.033443768,0,0,32.41536,24.77558343
ppg6_0,15-12-2019,2019,12,50,30.93105587,5.368911407,0,8.302103672,0,0,0,-4.033443768,0,0,39.02332,40.56862718
ppg6_0,22-12-2019,2019,12,51,19.05742313,5.368911407,0,0,0,0,0,0,0,-0.42028751,18.9483,24.00604703
ppg6_0,29-12-2019,2019,12,52,12.37195331,5.368911407,0,0,0,0,0,0,0,0,10.70728,17.74086471
ppg6_0,05-01-2020,2020,1,1,44.02771625,5.368911407,0,8.302103672,0,0,0,-4.033443768,0,0,31.60484,53.66528756
ppg6_0,12-01-2020,2020,1,2,44.76366462,5.368911407,14.78448795,0,26.60608684,0,0,0,0,0,116.40052,91.52315082
ppg6_0,19-01-2020,2020,1,3,23.05826089,5.368911407,0,8.302103672,0,0,0,-4.033443768,0,0,37.55746,32.6958322
ppg6_0,26-01-2020,2020,1,4,11.64486082,5.368911407,0,0,0,0,0,0,0,0,13.99528,17.01377222
ppg6_0,02-02-2020,2020,2,5,28.23772654,5.368911407,14.78448795,0,0,0,-1.359579326,0,0,-0.42028751,46.79716,46.61125906
ppg6_0,09-02-2020,2020,2,6,63.91007474,5.368911407,14.78448795,0,26.60608684,0,0,0,0,-0.42028751,111.77592,110.2492734
ppg6_0,16-02-2020,2020,2,7,20.33906691,5.368911407,0,8.302103672,0,0,0,-4.033443768,0,0,28.69718,29.97663822
ppg6_0,23-02-2020,2020,2,8,7.762939888,5.368911407,0,0,0,0,0,0,0,0,12.95204,13.13185129
ppg6_0,01-03-2020,2020,3,9,33.71370772,5.368911407,14.78448795,0,0,0,-1.359579326,0,0,0,54.59696,52.50752775
ppg6_0,08-03-2020,2020,3,10,17.99628754,5.368911407,0,8.302103672,0,0,0,-4.033443768,0,0,29.99132,27.63385885
ppg6_0,15-03-2020,2020,3,11,33.29826747,5.368911407,14.78448795,0,0,0,0,-4.033443768,0,0,58.85016,49.41822306
ppg6_0,22-03-2020,2020,3,12,10.96708393,5.368911407,0,0,0,0,0,0,0,0,21.62918,16.33599533
ppg6_0,29-03-2020,2020,3,13,36.1393642,5.368911407,14.78448795,0,0,0,-1.359579326,0,0,0,59.97298,54.93318423
ppg6_0,05-04-2020,2020,4,14,27.86692188,5.368911407,0,0,0,0,0,0,0,0,46.16996,33.23583329
ppg6_0,12-04-2020,2020,4,15,11.24943575,5.368911407,0,0,0,0,0,0,0,0,18.32224,16.61834716
ppg6_0,19-04-2020,2020,4,16,16.27385958,5.368911407,0,8.302103672,0,0,0,-4.033443768,0,0,24.50688,25.9114309
ppg6_0,26-04-2020,2020,4,17,66.31513356,5.368911407,14.78448795,0,26.60608684,0,0,0,0,0,89.2261,113.0746198
ppg6_0,03-05-2020,2020,5,18,8.041219561,5.368911407,0,0,0,0,0,0,0,0,11.78634,13.41013097
ppg6_0,10-05-2020,2020,5,19,28.74199275,5.368911407,14.78448795,0,0,0,-1.359579326,0,0,0,39.51874,47.53581278
ppg6_0,17-05-2020,2020,5,20,8.161606552,5.368911407,0,0,0,0,0,0,0,0,11.4614,13.53051796
ppg6_0,24-05-2020,2020,5,21,31.51316723,5.368911407,14.78448795,0,0,0,0,-4.033443768,0,0,44.8536,47.63312283
ppg6_0,31-05-2020,2020,5,22,7.887953989,5.368911407,0,0,0,0,0,0,0,0,11.0417,13.2568654
ppg6_0,07-06-2020,2020,6,23,69.36956545,5.368911407,14.78448795,0,0,0,-1.359579326,0,0,0,97.96532,88.16338548
ppg6_0,14-06-2020,2020,6,24,17.87377324,5.368911407,0,0,0,0,0,0,0,0,25.41482,23.24268465
ppg6_0,21-06-2020,2020,6,25,22.44843905,5.368911407,0,0,0,0,0,0,0,0,29.99012,27.81735045
ppg6_0,28-06-2020,2020,6,26,9.934731922,5.368911407,0,0,0,0,0,0,0,0,12.43944,15.30364333
ppg6_0,05-07-2020,2020,7,27,37.44399924,5.368911407,14.78448795,0,0,0,-1.359579326,0,0,0,53.5066,56.23781927
ppg6_0,12-07-2020,2020,7,28,27.0004476,5.368911407,14.78448795,0,0,0,-1.359579326,0,0,0,41.51428,45.79426764
ppg6_0,19-07-2020,2020,7,29,82.29478152,5.368911407,14.78448795,0,0,10.63273625,0,0,0,0,118.73432,113.0809171
ppg6_0,26-07-2020,2020,7,30,9.573896445,5.368911407,0,0,0,0,0,0,0,0,14.81502,14.94280785
ppg6_0,02-08-2020,2020,8,31,36.91646278,5.368911407,14.78448795,0,0,10.63273625,0,0,0,-0.42028751,55.85534,67.28231088
ppg6_0,09-08-2020,2020,8,32,10.49918528,5.368911407,0,0,0,0,0,0,0,0,15.7591,15.86809668
ppg6_0,16-08-2020,2020,8,33,16.37777307,5.368911407,0,0,0,0,0,0,0,0,33.58334,21.74668448
ppg6_0,23-08-2020,2020,8,34,9.211981642,5.368911407,0,0,0,0,0,0,0,0,13.54094,14.58089305
ppg6_0,30-08-2020,2020,8,35,39.93065372,5.368911407,14.78448795,0,0,0,-1.359579326,0,0,0,51.95414,58.72447375
ppg6_0,06-09-2020,2020,9,36,12.9590375,5.368911407,0,0,0,0,0,0,0,0,27.8502,18.3279489
ppg6_0,13-09-2020,2020,9,37,75.47729807,5.368911407,14.78448795,0,0,10.63273625,0,0,0,0,99.3891,106.2634337
ppg6_0,20-09-2020,2020,9,38,18.48342554,5.368911407,0,0,0,0,0,0,0,0,31.71454,23.85233695
ppg6_0,27-09-2020,2020,9,39,13.8273853,5.368911407,0,0,0,0,0,0,0,0,29.1526,19.19629671
